3199.11	1644.91
3198.4	1683.91
3197.7	1598.61
3196.99	1609.02
3196.29	1658.41
3195.58	1665.27
3194.88	1583.56
3194.17	1661.27
3193.46	1721.25
3192.76	1752.89
3192.05	1720.78
3191.35	1578.94
3190.64	1649.52
3189.93	1677.61
3189.23	1649.07
3188.52	1747.92
3187.81	1754.75
3187.11	1704.99
3186.4	1644.63
3185.69	1718.67
3184.99	1647.72
3184.28	1711.13
3183.57	1682.62
3182.86	1724.8
3182.16	1675.09
3181.45	1575.93
3180.74	1681.7
3180.03	1713.26
3179.33	1656.52
3178.62	1702.2
3177.91	1617.22
3177.2	1715.86
3176.49	1697.97
3175.79	1648.33
3175.08	1718.68
3174.37	1721.98
3173.66	1679.4
3172.95	1725.03
3172.24	1693.05
3171.53	1756.3
3170.82	1696.12
3170.12	1671.21
3169.41	1727.38
3168.7	1713.05
3167.99	1681.09
3167.28	1670.29
3166.57	1631.31
3165.86	1620.52
3165.15	1613.25
3164.44	1708.12
3163.73	1672.67
3163.02	1542.17
3162.31	1739.11
3161.6	1661.43
3160.89	1650.64
3160.18	1741.91
3159.47	1681.86
3158.76	1671.08
3158.05	1649.74
3157.34	1698.76
3156.63	1705.56
3155.91	1698.29
3155.2	1669.93
3154.49	1588.86
3153.78	1732.74
3153.07	1676.28
3152.36	1595.23
3151.65	1668.79
3150.93	1689.64
3150.22	1699.95
3149.51	1717.28
3148.8	1717.04
3148.09	1681.7
3147.37	1646.37
3146.66	1761.97
3145.95	1659.95
3145.24	1715.87
3144.52	1680.55
3143.81	1708.38
3143.1	1683.6
3142.39	1613.23
3141.67	1648.07
3140.96	1728.49
3140.25	1630.09
3139.53	1728.01
3138.82	1580.58
3138.11	1636.44
3137.39	1685.26
3136.68	1713.06
3135.97	1737.34
3135.25	1660.06
3134.54	1845.42
3133.82	1621.09
3133.11	1666.38
3132.4	1757.16
3131.68	1739.42
3130.97	1746.18
3130.25	1742.44
3129.54	1598.77
3128.82	1706.99
3128.11	1678.77
3127.39	1643.58
3126.68	1772.72
3125.96	1737.52
3125.25	1695.33
3124.53	1632.19
3123.82	1719.33
3123.1	1708.62
3122.39	1718.86
3121.67	1802.46
3120.96	1767.29
3120.24	1683.24
3119.52	1689.99
3118.81	1756.09
3118.09	1644.15
3117.38	1629.96
3116.66	1772.82
3115.94	1678.37
3115.23	1754.89
3114.51	1726.75
3113.79	1684.66
3113.08	1754.17
3112.36	1736.5
3111.64	1760.67
3110.92	1722.08
3110.21	1718.36
3109.49	1718.12
3108.77	1700.47
3108.05	1745.53
3107.34	1783.61
3106.62	1717.19
3105.9	1675.16
3105.18	1699.31
3104.47	1761.74
3103.75	1709.28
3103.03	1642.92
3102.31	1694.9
3101.59	1708.58
3100.87	1687.47
3100.16	1774.21
3099.44	1714.84
3098.72	1693.74
3098	1749.15
3097.28	1804.54
3096.56	1835.58
3095.84	1755.38
3095.12	1744.71
3094.4	1737.52
3093.68	1733.81
3092.96	1695.36
3092.24	1775.02
3091.52	1715.74
3090.8	1764.12
3090.08	1812.49
3089.36	1711.56
3088.64	1784.22
3087.92	1797.86
3087.2	1811.5
3086.48	1800.84
3085.76	1765.9
3085.04	1692.81
3084.32	1765.42
3083.6	1720.09
3082.88	1751.07
3082.16	1723.09
3081.44	1837.25
3080.71	1795.41
3079.99	1722.38
3079.27	1787.98
3078.55	1687.27
3077.83	1825.6
3077.11	1659.1
3076.39	1707.35
3075.66	1800.61
3074.94	1717.27
3074.22	1779.35
3073.5	1741.03
3072.77	1616.2
3072.05	1809.76
3071.33	1650.36
3070.61	1785.05
3069.88	1847.07
3069.16	1753.44
3068.44	1760.11
3067.71	1756.42
3066.99	1756.18
3066.27	1679.89
3065.55	1693.49
3064.82	1686.34
3064.1	1855.41
3063.37	1772.25
3062.65	1730.56
3061.93	1716.5
3061.2	1740.44
3060.48	1795.45
3059.75	1684.73
3059.03	1763.89
3058.31	1811.97
3057.58	1690.94
3056.86	1739.01
3056.13	1869.87
3055.41	1745.44
3054.68	1776.24
3053.96	1734.61
3053.23	1693
3052.51	1751.38
3051.78	1833.87
3051.06	1778.47
3050.33	1819.58
3049.61	1788.32
3048.88	1781.19
3048.15	1774.05
3047.43	1777.26
3046.7	1752.91
3045.98	1811.2
3045.25	1769.64
3044.52	1796.94
3043.8	1827.67
3043.07	1885.92
3042.35	1768.67
3041.62	1761.55
3040.89	1819.79
3040.17	1840.18
3039.44	1826.17
3038.71	1767.46
3037.98	1856.61
3037.26	1742.92
3036.53	1807.98
3035.8	1879.91
3035.07	1828.11
3034.35	1845.04
3033.62	1916.93
3032.89	1847.97
3032.16	1827.11
3031.44	1727.27
3030.71	1826.61
3029.98	1774.86
3029.25	1894.76
3028.52	1832.72
3027.79	1877.08
3027.07	1784.18
3026.34	1783.94
3025.61	1793.99
3024.88	1876.05
3024.15	1862.08
3023.42	1841.25
3022.69	1841
3021.96	1854.46
3021.23	1850.78
3020.5	1816.26
3019.77	1826.29
3019.04	1795.2
3018.31	1853.19
3017.58	1866.64
3016.85	1825.29
3016.12	1773.68
3015.39	1831.64
3014.66	1827.96
3013.93	1817.44
3013.2	1817.19
3012.47	1827.21
3011.74	1840.65
3011.01	1795.92
3010.28	1853.82
3009.55	1727.03
3008.82	1921.7
3008.09	1777.85
3007.35	1774.18
3006.62	1811.54
3005.89	1807.87
3005.16	1841.8
3004.43	1838.13
3003.7	1817.38
3002.96	1813.72
3002.23	1789.56
3001.5	1902
3000.77	1812.97
3000.04	1857.1
2999.3	1880.74
2998.57	1924.85
2997.84	1842.69
2997.11	1907.26
2996.37	1808.07
2995.64	1828.29
2994.91	1814.4
2994.17	1872.12
2993.44	1926.42
2992.71	1994.33
2991.97	1854.31
2991.24	1826.79
2990.51	1761.79
2989.77	1853.55
2989.04	1781.75
2988.3	1873.48
2987.57	1917.5
2986.84	1855.94
2986.1	1821.63
2985.37	1841.81
2984.63	1844.96
2983.9	1854.92
2983.16	1790.01
2982.43	1847.61
2981.7	1888.18
2980.96	1911.73
2980.23	1795.83
2979.49	1863.6
2978.75	1887.14
2978.02	1876.69
2977.28	1811.84
2976.55	1804.8
2975.81	1855.53
2975.08	1862.07
2974.34	1970.53
2973.61	1871.75
2972.87	1844.32
2972.13	1895.01
2971.4	1799.67
2970.66	1880.91
2969.92	1938.36
2969.19	1843.06
2968.45	1920.86
2967.71	1791.65
2966.98	1855.87
2966.24	1845.44
2965.5	1875.71
2964.77	1858.5
2964.03	1800.6
2963.29	1874.94
2962.55	1881.47
2961.82	1867.65
2961.08	1901.29
2960.34	1948.47
2959.6	1954.98
2958.87	1930.99
2958.13	1988.31
2957.39	1855.96
2956.65	1872.63
2955.91	1868.99
2955.17	1882.28
2954.44	1868.48
2953.7	1803.92
2952.96	1993.17
2952.22	1918.46
2951.48	1887.75
2950.74	1840.14
2950	1954.88
2949.26	1991.81
2948.52	1856.29
2947.78	1937.17
2947.04	1916.62
2946.3	1845.39
2945.56	1909.34
2944.82	1936.11
2944.08	1878.41
2943.34	1928.82
2942.6	1891.41
2941.86	1887.77
2941.12	1965.17
2940.38	1897.38
2939.64	1883.62
2938.9	1920.49
2938.16	1937.1
2937.42	1916.59
2936.68	1896.08
2935.94	1902.57
2935.2	1895.56
2934.46	1864.95
2933.71	1864.69
2932.97	2026.27
2932.23	1864.18
2931.49	1914.49
2930.75	1954.67
2930.01	2018.42
2929.26	2031.62
2928.52	1926.91
2927.78	1930.02
2927.04	1912.91
2926.29	1936.22
2925.55	1861.89
2924.81	1865
2924.07	1932.06
2923.32	1921.7
2922.58	2042.58
2921.84	1964.91
2921.09	1964.64
2920.35	1961.01
2919.61	1957.38
2918.86	1916.76
2918.12	1832.44
2917.38	1912.87
2916.63	1959.66
2915.89	1919.07
2915.15	1834.79
2914.4	1928.62
2913.66	1935.07
2912.91	1901.22
2912.17	1914.39
2911.42	1930.92
2910.68	1883.65
2909.94	1923.68
2909.19	1846.21
2908.45	1990.27
2907.7	1932.95
2906.96	1976.31
2906.21	1922.36
2905.47	1995.89
2904.72	1928.54
2903.97	1904.8
2903.23	1985.01
2902.48	1880.81
2901.74	1847.03
2900.99	1930.57
2900.25	1997.33
2899.5	2003.76
2898.75	2043.68
2898.01	1916.11
2897.26	1848.86
2896.51	1955.77
2895.77	1871.79
2895.02	1941.84
2894.27	1851.19
2893.53	1924.58
2892.78	1890.85
2892.03	1893.93
2891.29	1984.01
2890.54	1956.97
2889.79	1976.77
2889.04	1929.68
2888.3	1962.85
2887.55	1932.49
2886.8	2022.49
2886.05	1928.62
2885.3	1961.78
2884.56	1951.48
2883.81	1924.49
2883.06	1897.5
2882.31	1897.24
2881.56	1960.43
2880.81	1960.16
2880.06	1959.9
2879.32	2003.03
2878.57	1929.32
2877.82	1965.76
2877.07	1982.18
2876.32	2071.99
2875.57	1968.29
2874.82	1944.67
2874.07	1934.4
2873.32	1887.45
2872.57	1927.2
2871.82	1940.27
2871.07	1940
2870.32	1896.41
2869.57	1909.48
2868.82	1952.53
2868.07	2088.86
2867.32	1948.67
2866.57	1918.42
2865.82	1921.49
2865.07	2017.79
2864.32	2017.51
2863.57	2047.19
2862.81	2003.64
2862.06	1976.75
2861.31	1936.55
2860.56	1979.53
2859.81	1932.69
2859.06	1945.73
2858.31	1948.79
2857.55	1918.59
2856.8	1918.33
2856.05	1951.31
2855.3	1931.1
2854.55	1997.3
2853.79	1963.8
2853.04	1976.82
2852.29	1959.93
2851.54	1969.63
2850.78	1972.68
2850.03	2052.1
2849.28	1982.1
2848.52	1998.43
2847.77	2021.39
2847.02	1971.33
2846.26	1994.28
2845.51	1994.01
2844.76	1983.79
2844	2073.07
2843.25	2039.62
2842.5	1966.39
2841.74	1992.64
2840.99	2111.71
2840.23	2035.19
2839.48	2018.34
2838.72	1974.98
2837.97	1941.58
2837.21	1987.69
2836.46	2076.85
2835.71	2142.8
2834.95	2145.82
2834.2	2026.33
2833.44	1989.64
2832.68	2075.42
2831.93	2012.26
2831.17	2025.22
2830.42	2028.25
2829.66	1991.58
2828.91	1964.84
2828.15	1994.34
2827.4	2027.13
2826.64	2092.98
2825.88	2029.88
2825.13	2006.47
2824.37	1996.27
2823.61	2015.83
2822.86	1909.82
2822.1	2127.6
2821.34	2024.91
2820.59	2084.08
2819.83	2044.17
2819.07	2030.68
2818.32	2083.22
2817.56	1983.91
2816.8	2062.85
2816.04	2006.46
2815.29	2144.77
2814.53	2052.1
2813.77	2012.23
2813.01	2011.96
2812.25	2067.74
2811.5	1928.97
2810.74	1961.67
2809.98	2030.63
2809.22	2066.61
2808.46	1993.82
2807.7	1993.55
2806.94	1983.39
2806.19	2025.94
2805.43	2022.37
2804.67	2068.2
2803.91	2051.45
2803.15	2087.38
2802.39	1962
2801.63	2001.23
2800.87	2047.03
2800.11	2066.49
2799.35	2069.5
2798.59	2118.56
2797.83	2128.14
2797.07	2019.31
2796.31	2068.36
2795.55	1969.44
2794.79	2130.26
2794.03	2152.97
2793.27	2113.24
2792.51	2172.1
2791.75	2096.23
2790.99	2102.51
2790.22	2121.93
2789.46	2069.09
2788.7	2019.55
2787.94	2101.35
2787.18	2064.95
2786.42	2087.65
2785.66	2097.21
2784.89	2073.95
2784.13	2096.63
2783.37	2030.73
2782.61	2099.33
2781.84	2131.84
2781.08	2049.57
2780.32	2101.75
2779.56	2104.74
2778.79	1979.89
2778.03	2104.16
2777.27	2071.1
2776.51	2175.67
2775.74	2037.77
2774.98	2152.14
2774.22	2066.69
2773.45	2072.95
2772.69	2180.72
2771.93	2118.22
2771.16	2121.2
2770.4	2111.09
2769.63	2104.25
2768.87	2090.87
2768.11	2142.93
2767.34	2136.1
2766.58	2145.61
2765.81	2181.29
2765.05	2131.95
2764.28	2128.38
2763.52	2092.13
2762.75	2176.83
2761.99	2094.82
2761.22	2208.9
2760.46	2113.85
2759.69	2211.56
2758.93	2159
2758.16	2171.76
2757.4	2269.43
2756.63	2089.54
2755.87	2144.75
2755.1	2235.85
2754.33	2294.29
2753.57	2150.39
2752.8	2261.03
2752.04	2192.21
2751.27	2211.48
2750.5	2224.22
2749.74	2175
2748.97	2213.83
2748.2	2265.68
2747.43	2265.37
2746.67	2216.17
2745.9	2264.75
2745.13	2277.47
2744.37	2159.88
2743.6	2195.41
2742.83	2217.91
2742.06	2227.37
2741.3	2288.93
2740.53	2298.38
2739.76	2151.59
2738.99	2245.67
2738.22	2369.02
2737.45	2179.98
2736.69	2335.84
2735.92	2254.2
2735.15	2201.85
2734.38	2253.58
2733.61	2321.55
2732.84	2259.46
2732.07	2262.4
2731.3	2268.59
2730.53	2239.03
2729.77	2287.46
2729	2368.36
2728.23	2322.56
2727.46	2302.75
2726.69	2263.47
2725.92	2253.42
2725.15	2279.08
2724.38	2285.26
2723.61	2353.1
2722.84	2297.61
2722.07	2313.52
2721.29	2254.8
2720.52	2267.47
2719.75	2390.4
2718.98	2341.43
2718.21	2360.56
2717.44	2288.91
2716.67	2269.15
2715.9	2327.18
2715.13	2394.91
2714.35	2339.5
2713.58	2374.81
2712.81	2290.26
2712.04	2400.07
2711.27	2390.03
2710.5	2392.93
2709.72	2395.84
2708.95	2369.62
2708.18	2395.18
2707.41	2275.11
2706.63	2362.17
2705.86	2355.37
2705.09	2400.33
2704.32	2328.84
2703.54	2354.4
2702.77	2444.61
2702	2463.68
2701.22	2382.52
2700.45	2404.82
2699.68	2346.31
2698.9	2384.77
2698.13	2407.05
2697.35	2348.57
2696.58	2367.63
2695.81	2309.17
2695.03	2389.58
2694.26	2334.37
2693.48	2411.52
2692.71	2324.04
2691.93	2401.18
2691.16	2416.98
2690.38	2468.27
2689.61	2296.95
2688.83	2403.08
2688.06	2351.15
2687.28	2379.85
2686.51	2344.05
2685.73	2427.55
2684.96	2217.69
2684.18	2504.23
2683.41	2349.2
2682.63	2306.99
2681.85	2355
2681.08	2332.13
2680.3	2428.43
2679.53	2357.25
2678.75	2395.56
2677.97	2411.33
2677.2	2520.44
2676.42	2378.48
2675.64	2339.54
2674.87	2355.3
2674.09	2345.33
2673.31	2399.69
2672.53	2273.92
2671.76	2312.2
2670.98	2408.34
2670.2	2385.5
2669.42	2455.9
2668.65	2378.42
2667.87	2397.37
2667.09	2387.4
2666.31	2396.71
2665.53	2316.07
2664.75	2328.6
2663.98	2357.19
2663.2	2398.6
2662.42	2404.69
2661.64	2410.78
2660.86	2452.18
2660.08	2406.91
2659.3	2275.02
2658.52	2335.66
2657.74	2405.91
2656.97	2338.23
2656.19	2398.84
2655.41	2462.64
2654.63	2314.82
2653.85	2256.8
2653.07	2323.79
2652.29	2345.91
2651.51	2368.02
2650.73	2338.85
2649.95	2412.21
2649.17	2434.3
2648.38	2424.36
2647.6	2420.82
2646.82	2426.89
2646.04	2426.56
2645.26	2343
2644.48	2377.88
2643.7	2409.55
2642.92	2422.02
2642.14	2450.48
2641.35	2325.39
2640.57	2443.4
2639.79	2324.75
2639.01	2407.56
2638.23	2455.18
2637.44	2419.68
2636.66	2457.7
2635.88	2428.6
2635.1	2351.58
2634.31	2380.01
2633.53	2427.6
2632.75	2452.81
2631.97	2493.99
2631.18	2439.36
2630.4	2384.76
2629.62	2358.89
2628.83	2393.67
2628.05	2447.59
2627.27	2313.25
2626.48	2379.92
2625.7	2481.67
2624.92	2430.3
2624.13	2417.21
2623.35	2436
2622.56	2451.61
2621.78	2422.58
2620.99	2368.06
2620.21	2539.82
2619.43	2513.98
2618.64	2427.62
2617.86	2341.28
2617.07	2509.76
2616.29	2407.5
2615.5	2394.44
2614.72	2419.58
2613.93	2447.89
2613.14	2473.02
2612.36	2434.49
2611.57	2437.33
2610.79	2398.82
2610	2449.38
2609.22	2426.78
2608.43	2423.27
2607.64	2422.93
2606.86	2336.76
2606.07	2396.83
2605.28	2386.97
2604.5	2488.33
2603.71	2392.66
2602.92	2379.63
2602.14	2414.24
2601.35	2394.85
2600.56	2404.05
2599.78	2381.49
2598.99	2520.85
2598.2	2441.15
2597.41	2472.55
2596.62	2411.91
2595.84	2452.83
2595.05	2373.17
2594.26	2341.12
2593.47	2372.52
2592.68	2407.07
2591.9	2356.01
2591.11	2387.39
2590.32	2453.63
2589.53	2415.25
2588.74	2418.09
2587.95	2433.6
2587.16	2366.73
2586.37	2458.27
2585.58	2353.41
2584.8	2381.59
2584.01	2416.09
2583.22	2422.09
2582.43	2447.08
2581.64	2446.74
2580.85	2443.24
2580.06	2430.24
2579.27	2347.65
2578.48	2404.26
2577.69	2343.83
2576.9	2356.16
2576.1	2444.38
2575.31	2377.64
2574.52	2380.48
2573.73	2421.24
2572.94	2458.83
2572.15	2449.01
2571.36	2483.43
2570.57	2460.97
2569.78	2381.66
2568.98	2545.56
2568.19	2469.43
2567.4	2327
2566.61	2326.68
2565.82	2477.87
2565.03	2297.63
2564.23	2496.12
2563.44	2461.07
2562.65	2482.81
2561.86	2365.76
2561.06	2365.43
2560.27	2380.87
2559.48	2393.16
2558.68	2291.94
2557.89	2446.08
2557.1	2370.1
2556.3	2467.47
2555.51	2394.66
2554.72	2473.09
2553.92	2390.84
2553.13	2302.33
2552.34	2377.59
2551.54	2402.45
2550.75	2339.15
2549.95	2414.38
2549.16	2410.89
2548.37	2372.8
2547.57	2268.64
2546.78	2463.38
2545.98	2334.07
2545.19	2472.13
2544.39	2346
2543.6	2358.25
2542.8	2405.09
2542.01	2404.76
2541.21	2413.85
2540.42	2391.52
2539.62	2444.61
2538.82	2365.73
2538.03	2450.21
2537.23	2456.16
2536.44	2402.43
2535.64	2464.9
2534.84	2408.05
2534.05	2457.94
2533.25	2391.69
2532.45	2359.97
2531.66	2494.57
2530.86	2412.66
2530.06	2415.46
2529.27	2427.67
2528.47	2339.53
2527.67	2389.37
2526.87	2410.99
2526.08	2398.12
2525.28	2457.34
2524.48	2428.79
2523.68	2337.59
2522.89	2484.52
2522.09	2408.99
2521.29	2458.77
2520.49	2474.09
2519.69	2445.57
2518.89	2454.62
2518.1	2372.89
2517.3	2435.16
2516.5	2434.83
2515.7	2421.97
2514.9	2409.12
2514.1	2346.23
2513.3	2467.89
2512.5	2505.08
2511.7	2360.89
2510.9	2476.24
2510.1	2463.4
2509.3	2434.93
2508.5	2290.83
2507.7	2428
2506.9	2415.17
2506.1	2452.32
2505.3	2445.74
2504.5	2457.89
2503.7	2557.48
2502.9	2454.09
2502.1	2416.29
2501.3	2515.84
2500.5	2378.17
2499.7	2412.16
2498.9	2536.63
2498.09	2467.65
2497.29	2370.61
2496.49	2554.29
2495.69	2435.44
2494.89	2435.11
2494.09	2363.07
2493.28	2421.96
2492.48	2393.58
2491.68	2383.9
2490.88	2517.55
2490.08	2436.2
2489.27	2401.6
2488.47	2398.15
2487.67	2422.73
2486.86	2465.99
2486.06	2468.76
2485.26	2505.77
2484.45	2452.52
2483.65	2368.16
2482.85	2436.28
2482.04	2473.28
2481.24	2497.82
2480.44	2369.96
2479.63	2553.1
2478.83	2440.82
2478.02	2409.39
2477.22	2477.44
2476.42	2554.8
2475.61	2427.03
2474.81	2498.16
2474	2491.6
2473.2	2426.03
2472.39	2512.66
2471.59	2403.62
2470.78	2527.48
2469.98	2446.42
2469.17	2436.76
2468.37	2473.67
2467.56	2417.47
2466.75	2528.84
2465.95	2360.96
2465.14	2500.22
2464.34	2385.12
2463.53	2474.72
2462.72	2564.3
2461.92	2523.64
2461.11	2405.49
2460.31	2479.55
2459.5	2504
2458.69	2481.96
2457.88	2478.52
2457.08	2478.18
2456.27	2415.89
2455.46	2523.94
2454.66	2430.7
2453.85	2585.16
2453.04	2485.75
2452.23	2420.4
2451.43	2500.53
2450.62	2466.15
2449.81	2450.34
2449	2521.15
2448.19	2483.68
2447.38	2436.95
2446.58	2452.07
2445.77	2532.12
2444.96	2528.68
2444.15	2373.78
2443.34	2425.99
2442.53	2438.02
2441.72	2394.42
2440.91	2446.61
2440.1	2396.85
2439.29	2402.69
2438.48	2476.47
2437.68	2516.26
2436.87	2506.65
2436.06	2447.66
2435.25	2509.05
2434.44	2517.96
2433.62	2554.63
2432.81	2467.9
2432	2513.82
2431.19	2510.39
2430.38	2500.79
2429.57	2472.7
2428.76	2506.27
2427.95	2558.32
2427.14	2548.72
2426.33	2489.82
2425.52	2526.45
2424.7	2569.22
2423.89	2377.9
2423.08	2436.08
2422.27	2552.76
2421.46	2447.72
2420.64	2472.01
2419.83	2508.61
2419.02	2455.94
2418.21	2424.83
2417.4	2495.26
2416.58	2396.47
2415.77	2534.55
2414.96	2518.82
2414.14	2530.77
2413.33	2444.33
2412.52	2477.81
2411.7	2489.76
2410.89	2440.24
2410.08	2525.95
2409.26	2458
2408.45	2399.29
2407.64	2484.96
2406.82	2582.9
2406.01	2551.83
2405.19	2517.71
2404.38	2406.84
2403.56	2360.46
2402.75	2525.87
2401.94	2531.65
2401.12	2356.41
2400.31	2491.07
2399.49	2466.19
2398.68	2530.25
2397.86	2505.37
2397.05	2489.69
2396.23	2516.93
2395.41	2409.3
2394.6	2500.91
2393.78	2479.11
2392.97	2435.87
2392.15	2539.7
2391.33	2520.97
2390.52	2453.24
2389.7	2523.33
2388.89	2455.62
2388.07	2427.73
2387.25	2571.26
2386.44	2592.32
2385.62	2506.28
2384.8	2505.93
2383.98	2536.18
2383.17	2560.3
2382.35	2572.18
2381.53	2568.76
2380.71	2537.83
2379.9	2506.9
2379.08	2534.07
2378.26	2588.73
2377.44	2487.53
2376.62	2600.23
2375.81	2572.38
2374.99	2477.33
2374.17	2550.28
2373.35	2534.66
2372.53	2491.56
2371.71	2588.91
2370.89	2558.03
2370.07	2511.89
2369.26	2453.56
2368.44	2608.83
2367.62	2434.57
2366.8	2492.19
2365.98	2507.1
2365.16	2601.29
2364.34	2512.5
2363.52	2524.35
2362.7	2524
2361.88	2538.89
2361.06	2535.49
2360.24	2556.46
2359.42	2562.2
2358.6	2510.06
2357.77	2610.22
2356.95	2497.18
2356.13	2557.73
2355.31	2533.02
2354.49	2593.55
2353.67	2535.36
2352.85	2528.93
2352.03	2519.45
2351.2	2692.51
2350.38	2579.59
2349.56	2518.4
2348.74	2584.95
2347.92	2472.09
2347.09	2553.83
2346.27	2492.68
2345.45	2492.33
2344.63	2640.9
2343.8	2482.53
2342.98	2500.41
2342.16	2591.2
2341.33	2599.95
2340.51	2566.18
2339.69	2608.33
2338.86	2568.5
2338.04	2546.9
2337.22	2443.35
2336.39	2549.23
2335.57	2545.84
2334.75	2557.62
2333.92	2533
2333.1	2514.45
2332.27	2568.68
2331.45	2613.81
2330.62	2680.15
2329.8	2613.09
2328.97	2588.47
2328.15	2648.73
2327.32	2521.09
2326.5	2535.89
2325.67	2462.83
2324.85	2517.01
2324.02	2498.49
2323.2	2476.95
2322.37	2664.32
2321.55	2594.32
2320.72	2491.05
2319.89	2542.15
2319.07	2490.36
2318.24	2483.96
2317.41	2465.47
2316.59	2531.67
2315.76	2600.87
2314.93	2506.77
2314.11	2545.73
2313.28	2620.95
2312.45	2469.46
2311.63	2553.73
2310.8	2514.1
2309.97	2480.51
2309.14	2486.21
2308.32	2513.05
2307.49	2588.2
2306.66	2605.96
2305.83	2551.25
2305	2565.99
2304.18	2514.32
2303.35	2559.24
2302.52	2477.41
2301.69	2531.37
2300.86	2521.97
2300.03	2609.09
2299.2	2699.21
2298.38	2490.77
2297.55	2562.78
2296.72	2580.51
2295.89	2589.2
2295.06	2507.46
2294.23	2489.04
2293.4	2551.96
2292.57	2521.48
2291.74	2484.99
2290.91	2493.67
2290.08	2592.7
2289.25	2556.21
2288.42	2528.76
2287.59	2579.58
2286.76	2497.96
2285.93	2584.88
2285.09	2518.33
2284.26	2478.87
2283.43	2454.46
2282.6	2574.42
2281.77	2498.88
2280.94	2651.88
2280.11	2540.28
2279.28	2524.89
2278.44	2689.84
2277.61	2668.43
2276.78	2653.04
2275.95	2592.58
2275.11	2625.27
2274.28	2573.84
2273.45	2627.54
2272.62	2576.13
2271.78	2599.79
2270.95	2554.4
2270.12	2632.08
2269.29	2490.67
2268.45	2505.33
2267.62	2690.98
2266.79	2645.61
2265.95	2660.24
2265.12	2551.92
2264.28	2536.57
2263.45	2425.29
2262.62	2553.85
2261.78	2637.41
2260.95	2481.22
2260.11	2603.72
2259.28	2573.4
2258.44	2474.19
2257.61	2425.93
2256.77	2557.35
2255.94	2542.02
2255.1	2511.73
2254.27	2517.37
2253.43	2517.02
2252.6	2666.29
2251.76	2558.21
2250.93	2677.52
2250.09	2452.8
2249.26	2500.31
2248.42	2676.4
2247.58	2550.45
2246.75	2541.12
2245.91	2498.92
2245.07	2585.25
2244.24	2662.58
2243.4	2650.26
2242.56	2655.87
2241.73	2589.78
2240.89	2619.29
2240.05	2598.02
2239.22	2627.52
2238.38	2606.25
2237.54	2647.68
2236.7	2447.34
2235.87	2539.51
2235.03	2607.78
2234.19	2535.82
2233.35	2550.38
2232.51	2532.13
2231.68	2585.46
2230.84	2591.06
2230	2543
2229.16	2673.8
2228.32	2557.19
2227.48	2604.52
2226.64	2514.77
2225.8	2612.73
2224.96	2585.56
2224.12	2612
2223.29	2531.23
2222.45	2530.88
2221.61	2578.16
2220.77	2491.48
2219.93	2520.89
2219.09	2553.28
2218.25	2686.82
2217.41	2609.09
2216.57	2501.64
2215.72	2664.87
2214.88	2599.08
2214.04	2539.25
2213.2	2538.9
2212.36	2571.24
2211.52	2719.49
2210.68	2576.47
2209.84	2605.82
2209	2614.37
2208.15	2712.03
2207.31	2536.42
2206.47	2613.28
2205.63	2699.02
2204.79	2603.64
2203.94	2609.22
2203.1	2596.98
2202.26	2587.72
2201.42	2614.06
2200.57	2557.33
2199.73	2595.53
2198.89	2571.44
2198.05	2674.88
2197.2	2594.45
2196.36	2537.76
2195.52	2682.65
2194.67	2614.11
2193.83	2655.23
2192.98	2604.49
2192.14	2541.91
2191.3	2674.86
2190.45	2698.18
2189.61	2499.39
2188.76	2670.78
2187.92	2554.95
2187.08	2533.87
2186.23	2545.35
2185.39	2607.14
2184.54	2479.55
2183.7	2627.13
2182.85	2469.98
2182.01	2546.54
2181.16	2587.58
2180.31	2599.05
2179.47	2601.64
2178.62	2624.93
2177.78	2597.96
2176.93	2603.51
2176.09	2638.61
2175.24	2573.24
2174.39	2702.86
2173.55	2590.24
2172.7	2637.13
2171.85	2695.82
2171.01	2642.3
2170.16	2636.03
2169.31	2570.73
2168.47	2520.2
2167.62	2620.17
2166.77	2602.11
2165.92	2569.3
2165.08	2704.61
2164.23	2598.07
2163.38	2594.76
2162.53	2603.24
2161.68	2623.51
2160.84	2629.04
2159.99	2563.84
2159.14	2610.63
2158.29	2645.62
2157.44	2574.55
2156.59	2615.42
2155.74	2626.84
2154.89	2632.36
2154.05	2593.72
2153.2	2664.01
2152.35	2575.34
2151.5	2683.86
2150.65	2609.93
2149.8	2644.87
2148.95	2647.44
2148.1	2652.95
2147.25	2620.23
2146.4	2711.02
2145.55	2637.14
2144.7	2633.83
2143.85	2571.74
2143	2715.38
2142.14	2694.44
2141.29	2741.07
2140.44	2626.12
2139.59	2640.44
2138.74	2760.47
2137.89	2704.3
2137.04	2747.96
2136.19	2718.22
2135.33	2576.96
2134.48	2579.54
2133.63	2567.44
2132.78	2652.16
2131.93	2601.92
2131.07	2627.96
2130.22	2574.8
2129.37	2612.56
2128.52	2632.72
2127.66	2685.11
2126.81	2678.88
2125.96	2675.57
2125.1	2722.08
2124.25	2727.56
2123.4	2612.94
2122.54	2703.37
2121.69	2661.99
2120.84	2585.49
2119.98	2696.38
2119.13	2678.44
2118.27	2680.99
2117.42	2622.09
2116.56	2642.2
2115.71	2676.94
2114.86	2632.69
2114	2623.55
2113.15	2655.35
2112.29	2654.98
2111.44	2575.67
2110.58	2703.93
2109.73	2732.78
2108.87	2673.95
2108.01	2618.06
2107.16	2614.77
2106.3	2637.78
2105.45	2649.09
2104.59	2774.29
2103.73	2686.31
2102.88	2668.42
2102.02	2609.66
2101.17	2638.48
2100.31	2702.32
2099.45	2646.5
2098.59	2701.56
2097.74	2695.35
2096.88	2689.14
2096.02	2610.03
2095.17	2609.66
2094.31	2562.65
2093.45	2606.02
2092.59	2608.57
2091.74	2704.37
2090.88	2703.99
2090.02	2645.35
2089.16	2659.54
2088.3	2627.13
2087.44	2696.66
2086.59	2667.16
2085.73	2617.3
2084.87	2622.75
2084.01	2706.79
2083.15	2700.59
2082.29	2708.94
2081.43	2662.01
2080.57	2766.36
2079.71	2661.27
2078.85	2719.06
2077.99	2675.06
2077.13	2631.08
2076.27	2627.81
2075.41	2726.26
2074.55	2708.44
2073.69	2702.25
2072.83	2640.86
2071.97	2652.11
2071.11	2529.75
2070.25	2776.24
2069.39	2717.78
2068.53	2673.85
2067.67	2667.67
2066.8	2681.81
2065.94	2710.46
2065.08	2678.16
2064.22	2735.81
2063.36	2570.08
2062.5	2642.23
2061.63	2662.16
2060.77	2693.68
2059.91	2670.11
2059.05	2626.26
2058.18	2599.81
2057.32	2573.36
2056.46	2755.55
2055.6	2778.34
2054.73	2751.88
2053.87	2586.4
2053.01	2620.79
2052.14	2608.84
2051.28	2651.9
2050.42	2660.22
2049.55	2735.1
2048.69	2616.06
2047.82	2656.21
2046.96	2652.94
2046.1	2672.82
2045.23	2730.29
2044.37	2643.15
2043.5	2677.48
2042.64	2740.71
2041.77	2728.76
2040.91	2630.11
2040.04	2606.62
2039.18	2652.49
2038.31	2666.56
2037.45	2729.74
2036.58	2749.57
2035.72	2674.11
2034.85	2624.65
2033.98	2673.36
2033.12	2641.23
2032.25	2606.23
2031.38	2672.23
2030.52	2680.52
2029.65	2691.68
2028.79	2671.11
2027.92	2812.06
2027.05	2684.78
2026.18	2756.49
2025.32	2712.86
2024.45	2637.53
2023.58	2775.51
2022.72	2688.67
2021.85	2650.83
2020.98	2699.44
2020.11	2762.43
2019.24	2836.93
2018.38	2695.42
2017.51	2634.58
2016.64	2665.88
2015.77	2723.07
2014.9	2765.86
2014.03	2768.35
2013.16	2673.01
2012.3	2796.35
2011.43	2755.68
2010.56	2781.18
2009.69	2668.64
2008.82	2697.02
2007.95	2705.27
2007.08	2653.15
2006.21	2652.77
2005.34	2738.61
2004.47	2720.99
2003.6	2780.94
2002.73	2702.99
2001.86	2627.94
2000.99	2650.54
2000.12	2756.41
1999.25	2744.54
1998.37	2761.38
1997.5	2781.08
1996.63	2803.65
1995.76	2717.18
1994.89	2828.68
1994.02	2779.52
1993.15	2693.09
1992.27	2767.27
1991.4	2772.62
1990.53	2812.36
1989.66	2889.36
1988.79	2765.72
1987.91	2673.63
1987.04	2721.96
1986.17	2649.96
1985.3	2758.44
1984.42	2760.92
1983.55	2746.21
1982.68	2777.32
1981.8	2736.85
1980.93	2739.33
1980.06	2693.15
1979.18	2858.75
1978.31	2666.65
1977.44	2697.74
1976.56	2806.06
1975.69	2894.33
1974.81	2759.52
1973.94	2750.55
1973.06	2790.19
1972.19	2761.22
1971.31	2775.12
1970.44	2697.57
1969.57	2774.34
1968.69	2656.82
1967.81	2716.43
1966.94	2801.73
1966.06	2787.06
1965.19	2723.85
1964.31	2709.2
1963.44	2751.63
1962.56	2677.04
1961.68	2750.86
1960.81	2873.16
1959.93	2812.85
1959.06	2755.41
1958.18	2746.47
1957.3	2820.22
1956.43	2671.56
1955.55	2696.85
1954.67	2642.31
1953.79	2727.44
1952.92	2778.35
1952.04	2786.51
1951.16	2731.99
1950.28	2899.66
1949.41	2759.7
1948.53	2765.01
1947.65	2733.3
1946.77	2764.23
1945.89	2761
1945.02	2720.77
1944.14	2797.21
1943.26	2680.17
1942.38	2819.19
1941.5	2759.06
1940.62	2761.52
1939.74	2690.04
1938.86	2698.19
1937.98	2771.72
1937.1	2751.44
1936.22	2830.63
1935.34	2685.31
1934.46	2724.71
1933.58	2764.1
1932.7	2740.98
1931.82	2805.92
1930.94	2734.53
1930.06	2742.67
1929.18	2779.19
1928.3	2690.81
1927.42	2735.84
1926.54	2735.45
1925.66	2692.51
1924.78	2629.72
1923.9	2717.28
1923.01	2759.44
1922.13	2645.63
1921.25	2784.18
1920.37	2727.09
1919.49	2638.84
1918.61	2783.01
1917.72	2680.6
1916.84	2680.23
1915.96	2640.19
1915.08	2738.96
1914.19	2789.55
1913.31	2568.29
1912.43	2655.69
1911.54	2751.57
1910.66	2742.69
1909.78	2781.93
1908.89	2662.69
1908.01	2761.34
1907.13	2724.18
1906.24	2740.76
1905.36	2779.97
1904.47	2649.51
1903.59	2663.27
1902.71	2688.34
1901.82	2724.71
1900.94	2676.28
1900.05	2729.59
1899.17	2751.81
1898.28	2731.65
1897.4	2782.1
1896.51	2629.21
1895.63	2668.38
1894.74	2645.41
1893.85	2577.29
1892.97	2616.44
1892.08	2689.45
1891.2	2672.14
1890.31	2629.45
1889.42	2612.15
1888.54	2623.07
1887.65	2662.18
1886.77	2650.53
1885.88	2808.03
1884.99	2596.22
1884.1	2793.15
1883.22	2694.12
1882.33	2583.85
1881.44	2693.37
1880.56	2690.17
1879.67	2734.86
1878.78	2731.66
1877.89	2660.88
1877	2657.69
1876.12	2575.68
1875.23	2730.12
1874.34	2684.71
1873.45	2667.45
1872.56	2568.6
1871.67	2708.89
1870.79	2657.88
1869.9	2786.87
1869.01	2718.99
1868.12	2729.86
1867.23	2701.36
1866.34	2684.12
1865.45	2714.65
1864.56	2688.98
1863.67	2713.89
1862.78	2603.96
1861.89	2637.29
1861	2698.7
1860.11	2653.4
1859.22	2624.95
1858.33	2680.72
1857.44	2719.64
1856.55	2651.9
1855.66	2710.45
1854.76	2710.07
1853.87	2676.03
1852.98	2714.92
1852.09	2798.66
1851.2	2714.15
1850.31	2747.41
1849.41	2654.52
1848.52	2659.75
1847.63	2698.61
1846.74	2684.22
1845.85	2717.46
1844.95	2675.06
1844.06	2725.1
1843.17	2724.71
1842.28	2701.93
1841.38	2707.15
1840.49	2740.36
1839.6	2591.64
1838.7	2644.44
1837.81	2744.8
1836.92	2747.21
1836.02	2595.77
1835.13	2645.75
1834.23	2670.54
1833.34	2835.13
1832.45	2728.5
1831.55	2686.19
1830.66	2800.39
1829.76	2732.93
1828.87	2704.61
1827.97	2679.09
1827.08	2650.78
1826.18	2745.36
1825.29	2694.71
1824.39	2644.07
1823.5	2738.61
1822.6	2620.99
1821.7	2659.7
1820.81	2645.37
1819.91	2764.97
1819.02	2786.9
1818.12	2766.98
1817.22	2749.86
1816.33	2785.72
1815.43	2671.01
1814.53	2729.18
1813.64	2770.61
1812.74	2661.52
1811.84	2683.44
1810.94	2588.33
1810.05	2796.9
1809.15	2671.16
1808.25	2787.76
1807.35	2609.15
1806.46	2759.13
1805.56	2666.87
1804.66	2769.48
1803.76	2674.47
1802.86	2718.62
1801.97	2776.66
1801.07	2539.81
1800.17	2773.09
1799.27	2750.45
1798.37	2744.51
1797.47	2666.27
1796.57	2718.71
1795.67	2682.2
1794.77	2737.4
1793.87	2712
1792.97	2697.73
1792.07	2675.13
1791.17	2602.53
1790.27	2710.47
1789.37	2743.41
1788.47	2715.26
1787.57	2767.62
1786.67	2686.74
1785.77	2716.89
1784.87	2758.13
1783.97	2763.29
1783.07	2651.94
1782.16	2709.81
1781.26	2642.87
1780.36	2803.32
1779.46	2686.48
1778.56	2747.09
1777.66	2716.21
1776.75	2771.25
1775.85	2726.53
1774.95	2756.62
1774.05	2695.29
1773.14	2719.83
1772.24	2603.14
1771.34	2680.3
1770.44	2638.39
1769.53	2701.69
1768.63	2659.79
1767.73	2728.6
1766.82	2791.85
1765.92	2716.76
1765.01	2630.63
1764.11	2746.42
1763.21	2729.44
1762.3	2643.34
1761.4	2819.9
1760.49	2805.68
1759.59	2703.02
1758.68	2829.76
1757.78	2680.15
1756.87	2701.88
1755.97	2784.36
1755.06	2673.5
1754.16	2855.38
1753.25	2808.03
1752.35	2672.36
1751.44	2782.4
1750.54	2768.21
1749.63	2806.45
1748.72	2786.74
1747.82	2847.04
1746.91	2824.57
1746.01	2724.88
1745.1	2724.5
1744.19	2798.55
1743.29	2715.46
1742.38	2844.62
1741.47	2761.54
1740.56	2849.33
1739.66	2744.23
1738.75	2843.02
1737.84	2704.89
1736.93	2836.7
1736.03	2690.36
1735.12	2709.25
1734.21	2777.69
1733.3	2760.78
1732.39	2752.14
1731.48	2748.99
1730.58	2828.4
1729.67	2693.2
1728.76	2769.83
1727.85	2697.94
1726.94	2824.05
1726.03	2848.39
1725.12	2773.77
1724.21	2842.09
1723.3	2704.27
1722.39	2758.85
1721.48	2805.17
1720.57	2881.69
1719.66	2760.43
1718.75	2809.47
1717.84	2869.48
1716.93	2844.37
1716.02	2767.1
1715.11	2774.94
1714.2	2898.05
1713.29	2793.37
1712.38	2867.05
1711.47	2699.31
1710.55	2827.84
1709.64	2841.15
1708.73	2832.52
1707.82	2684.07
1706.91	2733.03
1705.99	2749.09
1705.08	2841.88
1704.17	2896.28
1703.26	2909.57
1702.34	2761.23
1701.43	2873.14
1700.52	2809.75
1699.61	2746.37
1698.69	2863.71
1697.78	2915.31
1696.87	2802.68
1695.95	2722.92
1695.04	2815.57
1694.13	2776.87
1693.21	2833.92
1692.3	2858.14
1691.38	2904.22
1690.47	2769.83
1689.55	2747.57
1688.64	2779.98
1687.72	2888.91
1686.81	2850.24
1685.9	2836.18
1684.98	2775.67
1684.06	2775.28
1683.15	2794.01
1682.23	2763.57
1681.32	2812.33
1680.4	2863.8
1679.49	2841.56
1678.57	2797.49
1677.65	2821.65
1676.74	2848.54
1675.82	2730.82
1674.91	2779.54
1673.99	2817.33
1673.07	2844.2
1672.16	2824.71
1671.24	2903.37
1670.32	2900.23
1669.4	2788.08
1668.49	2801.31
1667.57	2858.13
1666.65	2855
1665.73	2857.32
1664.82	2976.75
1663.9	2894.63
1662.98	2872.44
1662.06	2814.86
1661.14	2917.9
1660.22	2767.8
1659.3	2808.23
1658.39	2911.22
1657.47	2872.72
1656.55	2978.39
1655.63	2866.47
1654.71	2882.37
1653.79	2933.62
1652.87	2865.25
1651.95	2791.45
1651.03	2848.13
1650.11	2915.66
1649.19	2893.51
1648.27	2898.53
1647.35	2898.12
1646.43	2943.88
1645.51	2959.75
1644.59	2959.33
1643.67	2996.92
1642.75	2917.78
1641.82	2982.5
1640.9	3014.64
1639.98	2989.79
1639.06	3002.93
1638.14	2837.06
1637.22	3121.41
1636.29	3085.71
1635.37	2998.52
1634.45	3301.7
1633.53	3607.5
1632.6	3254.69
1631.68	3842.21
1630.76	4364.55
1629.84	4705.24
1628.91	5590.24
1627.99	6331.45
1627.07	6842.31
1626.14	5479.57
1625.22	3762.61
1624.3	3291.14
1623.37	3204.07
1622.45	3306.44
1621.52	3232.92
1620.6	3351.49
1619.68	3323.96
1618.75	3264
1617.83	3317.61
1616.9	3282
1615.98	3359.92
1615.05	3243.23
1614.13	3207.64
1613.2	3261.22
1612.28	3344.51
1611.35	3389.95
1610.43	3335.45
1609.5	3334.98
1608.57	3323.71
1607.65	3315.14
1606.72	3355.16
1605.79	3360.08
1604.87	3456.75
1603.94	3521.01
1603.02	3477.35
1602.09	3568.56
1601.16	3495.24
1600.23	3400.36
1599.31	3558.95
1598.38	3412.87
1597.45	3528.29
1596.52	3595.17
1595.6	3600.05
1594.67	3437.88
1593.74	3523.6
1592.81	3512.32
1591.88	3581.84
1590.96	3462.85
1590.03	3454.29
1589.1	3596.47
1588.17	3652.48
1587.24	3587.37
1586.31	3527.67
1585.38	3594.43
1584.45	3671.93
1583.52	3663.34
1582.59	3563.31
1581.66	3592.39
1580.73	3653.71
1579.8	3567.17
1578.87	3590.85
1577.94	3482.85
1577.01	3450.11
1576.08	3506.04
1575.15	3457.19
1574.22	3300.92
1573.29	3346.1
1572.36	3316.09
1571.43	3449.85
1570.5	3312.46
1569.57	3346.88
1568.63	3359.83
1567.7	3388.86
1566.77	3313.26
1565.84	3347.66
1564.91	3242.59
1563.97	3306.49
1563.04	3322.11
1562.11	3281.42
1561.18	3310.44
1560.24	3326.05
1559.31	3194.27
1558.38	3217.93
1557.44	3263.01
1556.51	3358.98
1555.58	3353.15
1554.64	3358.03
1553.71	3258.48
1552.78	3300.85
1551.84	3158.52
1550.91	3241.03
1549.97	3275.36
1549.04	3328.41
1548.11	3263.73
1547.17	3319.43
1546.24	3310.94
1545.3	3147.35
1544.37	3358.12
1543.43	3194.58
1542.5	3317.07
1541.56	3121.51
1540.62	3276.05
1539.69	3337.03
1538.75	3299.16
1537.82	3290.68
1536.88	3239.47
1535.94	3241.68
1535.01	3137.09
1534.07	3190.03
1533.14	3325.7
1532.2	3087.71
1531.26	3236.7
1530.32	3412.33
1529.39	3209.11
1528.45	3278
1527.51	3304.2
1526.57	3218.4
1525.64	3199.28
1524.7	3345.44
1523.76	3273
1522.82	3221.9
1521.88	3248.09
1520.95	3274.27
1520.01	3273.8
1519.07	3201.42
1518.13	3294.17
1517.19	3315
1516.25	3426.35
1515.31	3212.91
1514.37	3209.79
1513.43	3281.18
1512.5	3341.91
1511.56	3253.65
1510.62	3290.42
1509.68	3274
1508.74	3310.76
1507.8	3222.55
1506.85	3288.55
1505.91	3375.8
1504.97	3330.14
1504.03	3279.17
1503.09	3169.77
1502.15	3235.73
1501.21	3235.27
1500.27	3194.97
1499.33	3173.27
1498.39	3374.61
1497.44	3336.96
1496.5	3301.98
1495.56	3349.28
1494.62	3348.8
1493.68	3247.51
1492.73	3255
1491.79	3368.59
1490.85	3315.07
1489.91	3428.62
1488.96	3327.38
1488.02	3364.02
1487.08	3405.95
1486.13	3333.91
1485.19	3455.33
1484.25	3446.89
1483.3	3396.06
1482.36	3406.17
1481.41	3331.54
1480.47	3384.02
1479.53	3436.49
1478.58	3380.41
1477.64	3350.81
1476.69	3421.79
1475.75	3341.92
1474.8	3407.58
1473.86	3388.58
1472.91	3374.87
1471.97	3469.59
1471.02	3511.41
1470.08	3497.69
1469.13	3354.45
1468.18	3478.19
1467.24	3430.12
1466.29	3453.42
1465.35	3479.34
1464.4	3521.11
1463.45	3401.76
1462.51	3517.46
1461.56	3469.44
1460.61	3516.46
1459.66	3616.27
1458.72	3568.24
1457.77	3599.4
1456.82	3635.83
1455.87	3516.59
1454.93	3563.57
1453.98	3626.36
1453.03	3639.03
1452.08	3617.41
1451.13	3537.81
1450.19	3458.23
1449.24	3455.1
1448.29	3628.52
1447.34	3638.55
1446.39	3527.38
1445.44	3495.27
1444.49	3702.83
1443.54	3581.17
1442.59	3678.08
1441.64	3693.35
1440.69	3619.12
1439.74	3623.87
1438.79	3697.03
1437.84	3728.07
1436.89	3695.97
1435.94	3587.61
1434.99	3652.84
1434.04	3817.97
1433.09	3580.81
1432.14	3782.71
1431.19	3653.38
1430.24	3813.17
1429.29	3760.07
1428.33	3785.81
1427.38	3743.24
1426.43	3721.69
1425.48	3771.05
1424.53	3744.26
1423.57	3851.36
1422.62	3732.69
1421.67	3784.65
1420.72	3883.83
1419.76	3896.39
1418.81	3775.16
1417.86	3858.56
1416.9	3910.46
1415.95	3909.9
1415	3885.74
1414.04	3942.86
1413.09	3963.27
1412.14	4012.5
1411.18	3949.04
1410.23	4019.21
1409.27	3916.47
1408.32	4065.21
1407.36	3986.06
1406.41	4147.85
1405.46	4131.54
1404.5	4070.74
1403.54	4190.57
1402.59	4142.86
1401.63	4296.65
1400.68	4332.67
1399.72	4300.66
1398.77	4368.05
1397.81	4265.43
1396.86	4324.96
1395.9	4449.84
1394.94	4551.15
1393.99	4477.32
1393.03	4340.78
1392.07	4609.3
1391.12	4566.84
1390.16	4576.64
1389.2	4615.16
1388.24	4601.44
1387.29	4673.9
1386.33	4730.66
1385.37	4756.09
1384.41	4755.41
1383.46	4885.21
1382.5	4808.84
1381.54	4899.47
1380.58	5021.37
1379.62	5239.73
1378.66	5072.09
1377.71	5084.4
1376.75	5169.7
1375.79	5382.71
1374.83	5345.45
1373.87	5451.53
1372.91	5367.37
1371.95	5634.93
1370.99	5618.5
1370.03	5779.17
1369.07	5780.94
1368.11	5920.71
1367.15	5844.37
1366.19	6106.43
1365.23	6076.93
1364.27	6305.05
1363.31	6218.29
1362.35	6420.31
1361.38	6351.76
1360.42	6506.89
1359.46	6703.58
1358.5	6648.03
1357.54	6647.08
1356.58	6908.64
1355.61	6975.22
1354.65	7291.23
1353.69	7329.16
1352.73	7206.02
1351.77	7345.24
1350.8	7440.28
1349.84	7659.93
1348.88	7947.01
1347.91	7782.33
1346.95	7872.06
1345.99	8070.76
1345.02	8243.45
1344.06	8283.78
1343.1	8482.33
1342.13	8686.01
1341.17	8547.32
1340.2	8898.73
1339.24	9071.15
1338.28	8973.94
1337.31	9255.16
1336.35	9435.23
1335.38	9496.06
1334.42	9870.35
1333.45	9796.4
1332.49	10033.3
1331.52	10280.4
1330.55	10279
1329.59	10564.8
1328.62	10801.5
1327.66	10590.3
1326.69	10984.7
1325.72	11050.4
1324.76	11175.6
1323.79	11290.3
1322.83	11366.3
1321.86	11419
1320.89	11370.8
1319.92	11376.9
1318.96	11416.7
1317.99	11386.6
1317.02	11679.5
1316.05	11241.2
1315.09	11642.6
1314.12	11356.8
1313.15	11450.7
1312.18	11265.8
1311.21	11269.3
1310.25	11040.5
1309.28	10935.7
1308.31	10743.2
1307.34	10721
1306.37	10554.4
1305.4	10423.9
1304.43	10205.7
1303.46	10181.1
1302.49	10035.2
1301.52	9933.22
1300.55	9568.34
1299.58	9512.85
1298.61	9212.56
1297.64	9118.48
1296.67	8941.99
1295.7	9033.44
1294.73	8905.94
1293.76	8660.03
1292.79	8607.3
1291.82	8593.19
1290.85	8378.32
1289.88	8266.45
1288.9	8046.54
1287.93	7883.29
1286.96	7905.31
1285.99	7917.04
1285.02	7825.89
1284.04	7621.63
1283.07	7548.55
1282.1	7454.92
1281.13	7530.96
1280.15	7298.58
1279.18	7169.06
1278.21	7286.21
1277.23	6976.91
1276.26	6978.48
1275.29	7049.38
1274.31	6976.47
1273.34	6736.71
1272.37	6835.85
1271.39	6598.74
1270.42	6525.94
1269.44	6696.92
1268.47	6506.11
1267.49	6443.61
1266.52	6452.95
1265.55	6428.94
1264.57	6302.38
1263.6	6168.17
1262.62	6182.66
1261.64	6202.28
1260.67	6022.01
1259.69	5854.6
1258.72	6012.59
1257.74	5968.18
1256.77	5798.29
1255.79	5720.64
1254.81	5722.38
1253.84	5678.04
1252.86	5672.1
1251.88	5538.21
1250.91	5499.03
1249.93	5564.76
1248.95	5428.38
1247.97	5281.81
1247	5393.57
1246.02	5300.74
1245.04	5110.79
1244.06	5158.62
1243.08	5201.33
1242.11	5190.36
1241.13	5100.19
1240.15	5033.03
1239.17	4991.43
1238.19	4957.51
1237.21	4859.76
1236.23	4828.42
1235.25	4909.42
1234.27	4806.61
1233.3	4841.65
1232.32	4721.02
1231.34	4801.99
1230.36	4780.89
1229.38	4718.98
1228.4	4741.26
1227.42	4661.52
1226.43	4546.11
1225.45	4525.07
1224.47	4603.43
1223.49	4569.64
1222.51	4500.18
1221.53	4494.44
1220.55	4488.7
1219.57	4521.16
1218.59	4489.95
1217.6	4458.75
1216.62	4455.56
1215.64	4434.56
1214.66	4510.28
1213.68	4486.72
1212.69	4453
1211.71	4411.65
1210.73	4281.28
1209.74	4423.1
1208.76	4282.59
1207.78	4368.43
1206.79	4426.28
1205.81	4463.77
1204.83	4262.34
1203.84	4271.89
1202.86	4329.72
1201.88	4227.47
1200.89	4366.57
1199.91	4348.17
1198.92	4263.74
1197.94	4329.14
1196.95	4206.66
1195.97	4292.36
1194.98	4332.35
1194	4184.54
1193.01	4128.12
1192.03	4305.11
1191.04	4187.81
1190.06	4220.18
1189.07	4186.6
1188.08	4117.54
1187.1	4261.45
1186.11	4192.4
1185.13	4224.74
1184.14	4234.27
1183.15	4142.45
1182.17	4043.06
1181.18	4120.99
1180.19	4110.27
1179.2	4043.84
1178.22	4088.83
1177.23	4111.03
1176.24	4105.37
1175.25	3960.53
1174.27	3975.14
1173.28	4070.71
1172.29	3913.29
1171.3	4044.24
1170.31	3891.93
1169.32	4002.62
1168.33	4110.76
1167.35	3877.61
1166.36	4038.8
1165.37	4018.01
1164.38	3949.21
1163.39	3986.53
1162.4	3935.44
1161.41	3803.54
1160.42	3997.43
1159.43	3938.79
1158.44	3870.06
1157.45	3869.5
1156.46	3972.42
1155.47	3901.19
1154.48	3923.33
1153.48	3862.22
1152.49	3836.44
1151.5	3833.37
1150.51	3784.91
1149.52	3802.01
1148.53	3824.15
1147.54	3805.95
1146.54	3946.53
1145.55	3736.82
1144.56	3872.33
1143.57	3791.16
1142.57	3815.8
1141.58	3873.18
1140.59	3776.94
1139.6	3829.26
1138.6	3778.36
1137.61	3704.83
1136.62	3802.44
1135.62	3932.73
1134.63	3753.54
1133.63	3861.16
1132.64	3858.09
1131.65	3862.56
1130.65	3834.35
1129.66	3874.02
1128.66	3752.81
1127.67	3840.23
1126.67	3977.88
1125.68	3899.42
1124.68	3856.15
1123.69	3790.29
1122.69	3912.8
1121.7	3934.84
1120.7	3921.72
1119.7	3863.41
1118.71	3925.6
1117.71	4002.84
1116.72	3947.06
1115.72	3921.4
1114.72	3895.75
1113.73	3985.48
1112.73	3879.57
1111.73	3916.63
1110.74	3986.26
1109.74	4028.3
1108.74	3939.99
1107.74	4034.65
1106.75	3951.38
1105.75	3985.89
1104.75	4005.35
1103.75	3974.72
1102.75	3986.66
1101.75	3823.34
1100.76	3995.53
1099.76	3867.29
1098.76	3996.88
1097.76	4013.82
1096.76	3838.09
1095.76	3977.63
1094.76	3796.97
1093.76	3906.46
1092.76	3930.9
1091.76	3842.82
1090.76	3852.27
1089.76	3906.7
1088.76	3898.64
1087.76	3908.07
1086.76	3830.06
1085.76	3804.52
1084.76	3841.44
1083.76	3750.98
1082.76	3777.9
1081.75	3877.22
1080.75	3771.82
1079.75	3871.11
1078.75	3818.14
1077.75	3810.11
1076.75	3767.14
1075.74	3943.7
1074.74	3786.01
1073.74	3735.59
1072.74	3822.31
1071.73	3874.11
1070.73	3788.8
1069.73	3868.01
1068.72	3775.25
1067.72	3844.47
1066.72	3901.21
1065.71	3848.34
1064.71	3718.28
1063.71	3844.73
1062.7	3841.69
1061.7	3823.71
1060.69	3745.99
1059.69	3790.25
1058.68	3779.75
1057.68	3823.98
1056.67	3855.77
1055.67	3798.01
1054.66	3790
1053.66	3781.99
1052.65	3612.38
1051.65	3736.15
1050.64	3693.36
1049.63	3759.92
1048.63	3682.35
1047.62	3733.99
1046.62	3738.42
1045.61	3732.91
1044.6	3620.62
1043.6	3739.28
1042.59	3602.19
1041.58	3691.03
1040.57	3717.8
1039.57	3816.52
1038.56	3791.16
1037.55	3812.93
1036.54	3695.8
1035.53	3861.43
1034.53	3717.05
1033.52	3788.41
1032.51	3658.96
1031.5	3705.52
1030.49	3742.16
1029.48	3709.4
1028.47	3684.09
1027.47	3777.69
1026.46	3739.99
1025.45	3623.06
1024.44	3761.19
1023.43	3708.66
1022.42	3784.86
1021.41	3645.71
1020.4	3704.57
1019.39	3619.91
1018.38	3705.97
1017.37	3514.97
1016.35	3648.02
1015.34	3701.89
1014.33	3592.56
1013.32	3745.32
1012.31	3734.89
1011.3	3746.7
1010.29	3748.63
1009.27	3748.09
1008.26	3880.95
1007.25	3798.87
1006.24	3763.75
1005.23	3748.39
1004.21	3868.82
1003.2	3934.91
1002.19	3966.43
1001.17	3911.56
1000.16	3928.27
999.148	4021.45
998.134	3929.6
997.121	4084.41
996.107	4165.2
995.093	4233.64
994.079	4373.55
993.065	4303.89
992.051	4485.65
991.036	4536.75
990.021	4711.03
989.007	4850.78
987.992	5034.81
986.977	5169.54
985.961	5395.34
984.946	5246.83
983.931	5470.09
982.915	5356.07
981.899	5345.45
980.883	5472.63
979.867	5496.44
978.851	5549.77
977.834	5391.54
976.818	5439.95
975.801	5476.04
974.784	5477.71
973.767	5506.41
972.75	5350.77
971.733	5480.24
970.715	5430.3
969.698	5419.69
968.68	5438.55
967.662	5354.25
966.644	5505.73
965.626	5210.29
964.608	5224.26
963.589	5540.16
962.571	5308.65
961.552	5410.94
960.533	5231.05
959.514	5321.06
958.495	5249.15
957.475	5331.77
956.456	5362.88
955.436	5349.84
954.416	5319.65
953.396	5328.68
952.376	5394.08
951.356	5363.89
950.336	5108.31
949.315	5259.44
948.294	5312.57
947.273	5397.51
946.252	5286.54
945.231	5273.53
944.21	5355.99
943.189	5369.9
942.167	5374.01
941.145	5343.87
940.123	5379.79
939.101	5112.38
938.079	5128.76
937.057	4954.39
936.034	4643.15
935.012	4388.23
933.989	4416.92
932.966	4306.3
931.943	4271.47
930.92	4129.13
929.896	3852.48
928.873	3815.29
927.849	3834.27
926.825	3623.71
925.801	3567.03
924.777	3307.75
923.753	3378.05
922.729	3377.56
921.704	3335.59
920.679	3344.87
919.655	3315.11
918.63	3151.21
917.604	3262.93
916.579	3267.33
915.554	3208.35
914.528	3256.63
913.502	3226.91
912.476	3331.23
911.45	3255.21
910.424	3308.34
909.398	3093.5
908.371	3161.25
907.345	3116.95
906.318	3133.54
905.291	3203.69
904.264	3181.31
903.237	3222.22
902.209	3109.82
901.182	3255.35
900.154	3254.88
899.126	3193.59
898.098	3154.22
897.07	3168.35
896.042	3267.57
895.013	3084.78
893.985	3203.42
892.956	3139.77
891.927	3144.18
890.898	3095.13
889.869	3046.1
888.84	3118.52
887.81	3249.2
886.78	3192.88
885.751	3180.28
884.721	3160.39
883.691	3067.71
882.66	3115.8
881.63	3195.41
880.599	3112.46
879.569	3187.2
878.538	3043.65
877.507	3118.38
876.476	2936.09
875.445	3153.83
874.413	3211.55
873.382	3043.86
872.35	3103.99
871.318	2955.75
870.286	3066.75
869.254	3068.73
868.221	3153.04
867.189	3038.78
866.156	3055.28
865.123	3079.05
864.091	3013.25
863.057	3027.33
862.024	3123.67
860.991	3065.16
859.957	3026.01
858.924	3054.59
857.89	3005.78
856.856	3073.04
855.822	3075.01
854.787	3089.07
853.753	3100.7
852.718	3122
851.684	3070.8
850.649	3101.76
849.614	3207.58
848.578	3115.35
847.543	3134.21
846.508	3126.51
845.472	3070.53
844.436	3152.15
843.4	3137.21
842.364	3122.27
841.328	3196.61
840.291	3280.57
839.255	3164.32
838.218	3339.9
837.181	3322.53
836.144	3261.78
835.107	3316.74
834.07	3287.34
833.032	3291.68
831.995	3216.51
830.957	3283.49
829.919	3432.35
828.881	3241.59
827.843	3320.58
826.804	3358.62
825.766	3244.99
824.727	3299.88
823.688	3359.56
822.649	3371.1
821.61	3394.67
820.571	3389.36
819.531	3350.38
818.492	3306.61
817.452	3421.54
816.412	3548.46
815.372	3391.7
814.332	3458.5
813.292	3318.62
812.251	3226.83
811.211	3382.51
810.17	3353.19
809.129	3383.93
808.088	3481.89
807.046	3267.69
806.005	3236.01
804.963	3324.34
803.922	3206.26
802.88	3282.58
801.838	3188.53
800.796	3238.44
799.753	3281.14
798.711	3151.17
797.668	3246.62
796.626	3150.25
795.583	3260.05
794.54	3127.76
793.496	3076.97
792.453	3146.01
791.409	3095.24
790.366	3075.63
789.322	3106.31
788.278	3086.7
787.234	3122.17
786.189	3116.92
785.145	3061.41
784.1	3099.26
783.056	3007.88
782.011	2966.76
780.966	3105.08
779.92	3085.49
778.875	3132.87
777.83	3141.97
776.784	3117.61
775.738	3038.27
774.692	3066.5
773.646	3104.29
772.6	3142.07
771.553	3165.5
770.507	3047.99
769.46	3076.21
768.413	3185.61
767.366	3103.96
766.319	3115.44
765.271	3057.7
764.224	3114.53
763.176	3145.1
762.128	3108.85
761.08	3144.18
760.032	3143.72
758.984	3176.65
757.936	3099.88
756.887	3104.19
755.838	3227.7
754.789	3265.36
753.74	3255.35
752.691	3169.1
751.642	3252.02
750.592	3189.61
749.543	3339.19
748.493	3305.36
747.443	3509.65
746.393	3304.4
745.342	3441.97
744.292	3431.95
743.241	3545.67
742.191	3469.01
741.14	3523.22
740.089	3596.44
739.038	3605.43
737.986	3666.73
736.935	3618.64
735.883	3601.47
734.831	3821.99
733.779	3773.9
732.727	3685.43
731.675	3779.92
730.623	3731.86
729.57	3921.33
728.517	4003.87
727.464	3967.67
726.411	4009.82
725.358	4028.22
724.305	4196.14
723.251	4167.05
722.198	4289.82
721.144	4315.29
720.09	4385.82
719.036	4375.69
717.981	4348.96
716.927	4431.31
715.872	4700.91
714.818	4643.34
713.763	4725.6
712.708	4817.32
711.653	4897.17
710.597	4974.63
709.542	5075.74
708.486	5297.61
707.43	5415.23
706.374	5440.47
705.318	5593.54
704.262	5585.62
703.205	5660.53
702.149	5860.82
701.092	5942.76
700.035	5906.41
698.978	6184.62
697.921	6261.75
696.863	6246.65
695.806	6356.84
694.748	6403.18
693.69	6565.31
692.632	6592.71
691.574	6662.62
690.516	6548.25
689.458	6625.24
688.399	6945.44
687.34	6986.93
686.281	6922.16
685.222	6980.16
684.163	6976.77
683.104	6921.47
682.044	7139.89
680.984	6966.63
679.924	7100.06
678.864	7264.11
677.804	7362.09
676.744	7261.98
675.684	7461.3
674.623	7568.63
673.562	7539.24
672.501	7790.27
671.44	7970.54
670.379	7875.14
669.317	8147.21
668.256	8233.15
667.194	8342.61
666.132	8668.64
665.07	8610.88
664.008	8642.56
662.946	8721.31
661.883	9018.85
660.821	8991.65
659.758	9002.09
658.695	9137.18
657.632	9215.79
656.568	9129.8
655.505	9187.23
654.441	9009.59
653.378	8977.72
652.314	8802.51
651.25	8780.07
650.185	8755.29
649.121	8427.52
648.057	8677.57
646.992	8378.09
645.927	8308.77
644.862	8213.65
643.797	8102.14
642.732	8131.45
641.666	7696.18
640.601	7948.42
639.535	7729.1
638.469	7770.18
637.403	7534.54
636.336	7514.68
635.27	7485.44
634.204	7411.68
633.137	7277
632.07	7332.17
631.003	7010.11
629.936	7231.63
628.868	7193.09
627.801	7107.73
626.733	7066.87
625.665	6960.48
624.597	7085.87
623.529	7150.36
622.461	7074.42
621.393	7073.38
620.324	7041.93
619.255	7160.19
618.186	7175.51
617.117	7207.2
616.048	7070.53
614.979	7219.11
613.909	7274.14
612.839	7301.12
611.77	7206.58
610.699	7273.27
609.629	7297.9
608.559	7042.23
607.489	7230.36
606.418	6895.39
605.347	6793.98
604.276	6680.93
603.205	6616.93
602.134	6576.29
601.062	6540.32
599.991	6236.07
598.919	6069.54
597.847	5933.37
596.775	6053.76
595.703	5770.74
594.63	5832.84
593.558	5594.23
592.485	5427.93
591.412	5264.02
590.339	5246.93
589.266	5108.72
588.193	4977.53
587.119	4804.46
586.046	4685
584.972	4744.84
583.898	4744.14
582.824	4578.19
581.75	4517.01
580.675	4386.05
579.601	4334.22
578.526	4333.58
577.451	4170.14
576.376	4336.96
575.301	4243.31
574.225	4205.49
573.15	4223.47
572.074	4241.44
570.998	4043.3
569.922	4068.26
568.846	4095.54
567.77	4141.39
566.693	4078.08
565.617	4140.17
564.54	4025.8
563.463	3962.53
562.386	4124.42
561.308	4019.38
560.231	4011.83
559.153	4046.03
558.076	4156.78
556.998	3979.9
555.92	4004.83
554.841	3925.4
553.763	3952.64
552.684	4081.86
551.606	4021.01
550.527	4048.22
549.448	4105.55
548.369	4081.78
547.289	4132.13
546.21	4059.73
545.13	4193.43
544.05	4248.38
542.97	4296.37
541.89	4367.48
540.81	4350.64
539.729	4514.28
538.649	4488.17
537.568	4610.1
536.487	4609.42
535.406	4682.74
534.325	5001.12
533.243	5000.39
532.162	5078.24
531.08	5396.42
529.998	5850.85
528.916	6115.68
527.834	6948.72
526.751	7672.95
525.669	9159.07
524.586	11806.2
523.503	16789
522.42	27356.6
521.337	47144
520.254	69967
519.17	70995
518.087	49340.1
517.003	28974.1
515.919	17795.7
514.835	12627.6
513.75	9831.31
512.666	8442.06
511.581	7447.37
510.497	6782.54
509.412	6389.81
508.327	5983.37
507.241	5814.32
506.156	5818.07
505.07	5556.98
503.985	5507.8
502.899	5458.64
501.813	5501.58
500.726	5353.46
499.64	5414.81
498.554	5331.17
497.467	5424.71
496.38	5198.49
495.293	5149.42
494.206	5070.48
493.118	5120.31
492.031	5045.99
490.943	4909.63
489.856	4867.54
488.768	4926.57
487.679	4790.29
486.591	4810.25
485.503	4692.41
484.414	4689.42
483.325	4796.64
482.236	4561.76
481.147	4733.25
480.058	4521.4
478.969	4456.48
477.879	4584.31
476.789	4574.45
475.699	4617.36
474.609	4547.87
473.519	4430.25
472.429	4459.41
471.338	4477.09
470.247	4366.4
469.156	4333.67
468.065	4326.16
466.974	4336.98
465.883	4217.22
464.791	4090.62
463.7	4122.08
462.608	4171.84
461.516	4100.26
460.424	4017.25
459.331	3984.61
458.239	3933.68
457.146	3997.16
456.053	3859.31
454.96	3902.2
453.867	3881.04
452.774	3921.62
451.68	3820.44
450.587	3799.31
449.493	3759.89
448.399	3791.33
447.305	3715.36
446.211	3662.27
445.116	3682.28
444.022	3663.47
442.927	3770.25
441.832	3724.03
440.737	3723.48
439.642	3725.21
438.546	3704.12
437.451	3628.27
436.355	3675.65
435.259	3595.26
434.163	3597.01
433.067	3648.93
431.971	3577.7
430.874	3622.77
429.777	3574.36
428.68	3685.51
427.583	3664.46
426.486	3720.88
425.389	3645.15
424.291	3724.34
423.194	3780.72
422.096	3850.76
420.998	3927.6
419.9	4031.74
418.801	4215.51
417.703	4376.48
416.604	4405.41
415.505	4802.91
414.406	5129.78
413.307	5422.43
412.208	5624.03
411.109	5957.45
410.009	6077.07
408.909	6107.99
407.809	6047.99
406.709	5626.69
405.609	5423.63
404.508	5150.21
403.408	4915.48
402.307	4612.69
401.206	4482.57
400.105	4307.08
399.004	4217.91
397.902	4126.49
396.801	4012.41
395.699	3898.36
394.597	3831.98
393.495	3776.97
392.393	3799.1
391.29	3920.99
390.188	3861.46
389.085	3697.65
387.982	3667.64
386.879	3689.76
385.776	3684.68
384.672	3781.56
383.569	3760.61
382.465	3764.58
381.361	3902.18
380.257	3770.26
379.153	3873.85
378.049	3895.91
376.944	3795.74
375.84	3754.45
374.735	3857.98
373.63	3812.16
372.524	3895.29
371.419	3831.38
370.314	3790.11
369.208	3970.43
368.102	3840.98
366.996	3867.53
365.89	3826.28
364.784	3904.8
363.677	3924.56
362.57	3892.35
361.464	3930.17
360.357	3859.58
359.25	3845.46
358.142	4027.76
357.035	3921.06
355.927	3931.77
354.819	4077.87
353.711	4009.57
352.603	4015.75
351.495	3929.43
350.386	3913.06
349.278	4142.5
348.169	4191.48
347.06	4075.89
345.951	4147.41
344.842	4074.68
343.732	4121.39
342.623	4111.77
341.513	4212.53
340.403	4196.14
339.293	4184.26
338.182	4413.31
337.072	4356.37
335.961	4346.72
334.851	4375.33
333.74	4453.44
332.629	4470.78
331.517	4508.36
330.406	4433.46
329.294	4450.8
328.182	4447.89
327.071	4307.83
325.958	4318.43
324.846	4205.4
323.734	4299.17
322.621	4262.58
321.508	4311.37
320.395	4209.64
319.282	4395.44
318.169	4381.31
317.056	4338
315.942	4115.1
314.828	4368.13
313.714	4342.79
312.6	4393.76
311.486	4469.39
310.372	4399.19
309.257	4519.65
308.142	4675.97
307.028	4836.72
305.912	5010.88
304.797	5155.84
303.682	5354.55
302.566	5611.47
301.45	5868.32
300.335	6176.61
299.219	6417.61
