3199.11	258.79
3198.4	283.605
3197.7	322.557
3196.99	318.969
3196.29	283.489
3195.58	286.993
3194.88	318.838
3194.17	265.662
3193.46	258.542
3192.76	332.872
3192.05	308.042
3191.35	300.919
3190.64	300.878
3189.93	329.151
3189.23	329.106
3188.52	297.217
3187.81	378.546
3187.11	282.986
3186.4	311.242
3185.69	272.3
3184.99	293.478
3184.28	261.619
3183.57	328.747
3182.86	272.151
3182.16	303.919
3181.45	296.811
3180.74	275.573
3180.03	314.392
3179.33	310.818
3178.62	278.991
3177.91	293.077
3177.2	310.69
3176.49	278.877
3175.79	300.017
3175.08	342.325
3174.37	317.578
3173.66	246.971
3172.95	310.436
3172.24	310.393
3171.53	317.404
3170.82	313.835
3170.12	324.369
3169.41	285.547
3168.7	281.983
3167.99	359.479
3167.28	296.001
3166.57	306.531
3165.86	278.306
3165.15	348.716
3164.44	324.015
3163.73	366.228
3163.02	278.154
3162.31	302.759
3161.6	288.638
3160.89	309.716
3160.18	299.116
3159.47	256.853
3158.76	348.287
3158.05	323.617
3157.34	298.953
3156.63	305.945
3155.91	284.807
3155.2	284.768
3154.49	312.85
3153.78	302.264
3153.07	337.364
3152.36	295.153
3151.65	270.52
3150.93	330.201
3150.22	302.057
3149.51	284.457
3148.8	273.884
3148.09	326.509
3147.37	333.485
3146.66	298.341
3145.95	308.828
3145.24	266.679
3144.52	315.761
3143.81	336.766
3143.1	294.63
3142.39	305.111
3141.67	287.536
3140.96	319.051
3140.25	287.458
3139.53	280.408
3138.82	318.921
3138.11	297.852
3137.39	266.279
3136.68	269.745
3135.97	332.757
3135.25	315.201
3134.54	304.652
3133.82	297.608
3133.11	315.071
3132.4	304.527
3131.68	314.985
3130.97	283.448
3130.25	286.908
3129.54	283.371
3128.82	272.838
3128.11	349.745
3127.39	300.739
3126.68	370.628
3125.96	304.153
3125.25	311.103
3124.53	311.06
3123.82	342.469
3123.1	286.516
3122.39	345.869
3121.67	338.835
3120.96	307.355
3120.24	303.821
3119.52	317.746
3118.81	289.773
3118.09	307.187
3117.38	331.577
3116.66	317.572
3115.94	324.508
3115.23	359.352
3114.51	289.535
3113.79	258.105
3113.08	313.868
3112.36	299.877
3111.64	317.269
3110.92	313.739
3110.21	327.639
3109.49	341.534
3108.77	320.58
3108.05	261.307
3107.34	285.656
3106.62	306.516
3105.9	299.509
3105.18	358.665
3104.47	285.5
3103.75	348.123
3103.03	288.903
3102.31	302.784
3101.59	316.662
3100.87	264.429
3100.16	264.393
3099.44	250.443
3098.72	319.967
3098	323.401
3097.28	260.771
3096.56	326.789
3095.84	333.696
3095.12	319.748
3094.4	298.854
3093.68	347.457
3092.96	302.247
3092.24	284.837
3091.52	302.164
3090.8	312.541
3090.08	333.331
3089.36	333.286
3088.64	308.941
3087.92	301.958
3087.2	281.094
3086.48	284.526
3085.76	305.303
3085.04	326.075
3084.32	326.03
3083.6	322.517
3082.88	273.929
3082.16	315.495
3081.44	301.586
3080.71	318.875
3079.99	280.71
3079.27	360.369
3078.55	294.492
3077.83	301.38
3077.11	332.512
3076.39	318.614
3075.66	277.017
3074.94	356.611
3074.22	280.403
3073.5	332.285
3072.77	297.631
3072.05	297.59
3071.33	339.068
3070.61	294.049
3069.88	311.304
3069.16	321.637
3068.44	280.097
3067.71	314.634
3066.99	304.219
3066.27	279.982
3065.55	304.136
3064.82	321.373
3064.1	317.874
3063.37	335.104
3062.65	321.241
3061.93	293.567
3061.2	310.793
3060.48	324.562
3059.75	310.708
3059.03	314.118
3058.31	303.721
3057.58	282.974
3056.86	334.691
3056.13	300.146
3055.41	334.6
3054.68	289.717
3053.96	320.714
3053.23	327.566
3052.51	299.941
3051.78	303.347
3051.06	272.285
3050.33	292.925
3049.61	299.777
3048.88	292.845
3048.15	316.918
3047.43	306.542
3046.7	272.062
3045.98	265.138
3045.25	368.388
3044.52	282.278
3043.8	296.007
3043.07	278.759
3042.35	316.572
3041.62	271.802
3040.89	275.204
3040.17	319.881
3039.44	330.155
3038.71	302.601
3037.98	288.807
3037.26	371.272
3036.53	333.412
3035.8	288.688
3035.07	285.212
3034.35	326.403
3033.62	312.617
3032.89	305.705
3032.16	333.138
3031.44	326.225
3030.71	315.879
3029.98	284.939
3029.25	284.9
3028.52	284.861
3027.79	319.138
3027.07	312.232
3026.34	291.606
3025.61	332.728
3024.88	336.112
3024.15	339.495
3023.42	318.876
3022.69	260.551
3021.96	301.65
3021.23	305.036
3020.5	311.848
3019.77	298.1
3019.04	318.614
3018.31	284.316
3017.58	315.102
3016.85	328.757
3016.12	352.681
3015.39	318.397
3014.66	318.353
3013.93	314.887
3013.2	321.688
3012.47	314.8
3011.74	314.757
3011.01	331.818
3010.28	290.729
3009.55	314.628
3008.82	290.649
3008.09	345.312
3007.35	321.336
3006.62	328.128
3005.89	328.083
3005.16	300.702
3004.43	276.744
3003.7	314.284
3002.96	303.994
3002.23	334.689
3001.5	290.252
3000.77	344.84
3000.04	290.172
2999.3	310.612
2998.57	283.267
2997.84	283.228
2997.11	361.664
2996.37	303.619
2995.64	347.921
2994.91	313.768
2994.17	354.646
2993.44	317.092
2992.71	259.093
2991.97	272.692
2991.24	282.879
2990.51	330.549
2989.77	350.947
2989.04	316.831
2988.3	299.756
2987.57	296.309
2986.84	354.16
2986.1	282.608
2985.37	340.445
2984.63	319.975
2983.9	313.124
2983.16	319.887
2982.43	374.285
2981.7	312.995
2980.96	282.338
2980.23	302.706
2979.49	340.073
2978.75	316.224
2978.02	316.181
2977.28	302.54
2976.55	319.493
2975.81	319.449
2975.08	282.028
2974.34	319.362
2973.61	322.715
2972.87	309.085
2972.13	305.646
2971.4	353.143
2970.66	278.402
2969.92	339.468
2969.19	322.45
2968.45	322.406
2967.71	308.789
2966.98	295.175
2966.24	322.273
2965.5	315.446
2964.77	312.011
2964.03	328.923
2963.29	294.973
2962.55	369.513
2961.82	325.398
2961.08	325.354
2960.34	321.92
2959.6	338.817
2958.87	267.629
2958.13	308.239
2957.39	287.876
2956.65	335.245
2955.91	318.27
2955.17	324.997
2954.44	318.183
2953.7	297.833
2952.96	324.864
2952.22	287.6
2951.48	328.158
2950.74	324.73
2950	301.011
2949.26	334.786
2948.52	300.928
2947.78	321.172
2947.04	297.465
2946.3	324.463
2945.56	304.143
2944.82	304.101
2944.08	347.979
2943.34	320.908
2942.6	310.731
2941.86	327.574
2941.12	280.257
2940.38	310.603
2939.64	307.185
2938.9	303.768
2938.16	300.351
2937.42	317.182
2936.68	350.876
2935.94	300.228
2935.2	276.577
2934.46	300.146
2933.71	343.94
2932.97	303.435
2932.23	300.022
2931.49	316.834
2930.75	323.531
2930.01	306.638
2929.26	326.811
2928.52	296.448
2927.78	330.09
2927.04	306.47
2926.29	340.102
2925.55	333.321
2924.81	343.375
2924.07	333.23
2923.32	316.357
2922.58	286.028
2921.84	309.541
2921.09	279.221
2920.35	306.092
2919.61	316.14
2918.86	332.91
2918.12	322.778
2917.38	363.075
2916.63	376.471
2915.89	339.449
2915.15	329.322
2914.4	282.237
2913.66	319.153
2912.91	282.16
2912.17	302.272
2911.42	308.947
2910.68	325.693
2909.94	352.506
2909.19	359.171
2908.45	355.766
2907.7	342.294
2906.96	271.784
2906.21	281.812
2905.47	295.191
2904.72	301.858
2903.97	331.999
2903.23	298.422
2902.48	321.85
2901.74	321.806
2900.99	311.706
2900.25	325.068
2899.5	358.532
2898.75	304.878
2898.01	301.486
2897.26	304.794
2896.51	338.241
2895.77	351.589
2895.02	321.409
2894.27	318.017
2893.53	344.75
2892.78	324.623
2892.03	321.232
2891.29	294.423
2890.54	324.489
2889.79	284.307
2889.04	341.122
2888.3	314.324
2887.55	351.059
2886.8	314.238
2886.05	320.88
2885.3	300.784
2884.56	324.134
2883.81	277.313
2883.06	304.001
2882.31	324
2881.56	360.693
2880.81	317.233
2880.06	343.9
2879.32	343.853
2878.57	320.44
2877.82	303.709
2877.07	370.407
2876.32	353.674
2875.57	343.617
2874.82	300.207
2874.07	310.171
2873.32	330.137
2872.57	333.426
2871.82	346.715
2871.07	296.667
2870.32	253.299
2869.57	346.572
2868.82	316.537
2868.07	333.151
2867.32	329.774
2866.57	349.713
2865.82	326.354
2865.07	319.65
2864.32	299.63
2863.57	326.219
2862.81	292.892
2862.06	349.425
2861.31	349.377
2860.56	312.733
2859.81	352.608
2859.06	302.669
2858.31	315.929
2857.55	349.137
2856.8	312.518
2856.05	295.854
2855.3	272.547
2854.55	345.622
2853.79	309.024
2853.04	332.238
2852.29	302.295
2851.54	308.896
2850.78	335.422
2850.03	332.056
2849.28	302.129
2848.52	328.645
2847.77	321.961
2847.02	318.598
2846.26	348.419
2845.51	308.557
2844.76	354.958
2844	354.909
2843.25	331.646
2842.5	378.024
2841.74	291.768
2840.99	351.4
2840.23	321.52
2839.48	324.79
2838.72	258.471
2837.97	298.194
2837.21	294.841
2836.46	314.674
2835.71	354.374
2834.95	311.276
2834.2	350.966
2833.44	301.259
2832.68	304.528
2831.93	274.7
2831.17	337.536
2830.42	314.329
2829.66	320.902
2828.91	360.552
2828.15	340.658
2827.4	324.077
2826.64	300.887
2825.88	343.824
2825.13	284.277
2824.37	330.509
2823.61	297.417
2822.86	307.289
2822.1	333.677
2821.34	327.024
2820.59	300.557
2819.83	356.656
2819.07	313.682
2818.32	366.462
2817.56	333.402
2816.8	287.148
2816.04	353.111
2815.29	326.665
2814.53	303.526
2813.77	303.484
2813.01	329.829
2812.25	352.868
2811.5	333.036
2810.74	336.287
2809.98	329.648
2809.22	323.01
2808.46	299.897
2807.7	329.512
2806.94	326.172
2806.19	283.302
2805.43	326.082
2804.67	309.571
2803.91	339.164
2803.15	306.193
2802.39	325.903
2801.63	322.567
2800.87	276.448
2800.11	289.572
2799.35	289.533
2798.59	335.548
2797.83	328.924
2797.07	368.344
2796.31	309.103
2795.55	345.228
2794.79	345.18
2794.03	295.828
2793.27	299.074
2792.51	361.468
2791.75	269.421
2790.99	315.377
2790.22	338.326
2789.46	282.447
2788.7	282.408
2787.94	321.77
2787.18	302.028
2786.42	288.857
2785.66	357.739
2784.89	318.312
2784.13	278.894
2783.37	370.715
2782.61	354.263
2781.84	305.018
2781.08	354.165
2780.32	314.77
2779.56	350.79
2778.79	324.518
2778.03	331.028
2777.27	301.489
2776.51	380.086
2775.74	285.025
2774.98	317.743
2774.22	357.003
2773.45	337.305
2772.69	317.612
2771.93	363.403
2771.16	346.986
2770.4	333.846
2769.63	317.438
2768.87	294.489
2768.11	310.807
2767.34	343.476
2766.58	353.241
2765.81	323.76
2765.05	274.668
2764.28	333.479
2763.52	297.475
2762.75	352.999
2761.99	349.682
2761.22	359.437
2760.46	339.784
2759.69	290.737
2758.93	323.36
2758.16	365.771
2757.4	271.025
2756.63	333.021
2755.87	349.298
2755.1	352.514
2754.33	303.512
2753.57	339.364
2752.8	319.741
2752.04	329.484
2751.27	309.868
2750.5	335.916
2749.74	335.87
2748.97	306.48
2748.2	286.878
2747.43	329.212
2746.67	316.131
2745.9	316.087
2745.13	303.011
2744.37	335.547
2743.6	312.7
2742.83	302.886
2742.06	341.921
2741.3	289.779
2740.53	322.294
2739.76	312.485
2738.99	263.623
2738.22	341.686
2737.45	374.176
2736.69	344.845
2735.92	322.028
2735.15	289.46
2734.38	331.695
2733.61	344.656
2732.84	325.102
2732.07	338.06
2731.3	302.262
2730.53	318.468
2729.77	360.665
2729	298.888
2728.23	331.33
2727.46	295.558
2726.69	308.507
2725.92	350.676
2725.15	340.888
2724.38	324.61
2723.61	308.337
2722.84	314.785
2722.07	275.805
2721.29	350.386
2720.52	314.655
2719.75	337.316
2718.98	346.999
2718.21	340.466
2717.44	333.935
2716.67	298.231
2715.9	333.843
2715.13	385.649
2714.35	356.433
2713.58	340.185
2712.81	314.223
2712.04	255.878
2711.27	385.383
2710.5	343.236
2709.72	365.852
2708.95	320.481
2708.18	326.91
2707.41	310.684
2706.63	313.877
2705.86	304.127
2705.09	313.79
2704.32	355.796
2703.54	291.066
2702.77	278.091
2702	313.618
2701.22	365.298
2700.45	294.138
2699.68	323.184
2698.9	316.676
2698.13	342.48
2697.35	313.359
2696.58	287.475
2695.81	319.732
2695.03	316.458
2694.26	313.186
2693.48	332.513
2692.71	355.062
2691.93	322.739
2691.16	287.198
2690.38	319.424
2689.61	293.571
2688.83	338.689
2688.06	383.795
2687.28	309.573
2686.51	306.307
2685.73	315.936
2684.96	357.796
2684.18	312.626
2683.41	325.473
2682.63	293.207
2681.85	306.054
2681.08	302.79
2680.3	328.514
2679.53	318.808
2678.75	293.006
2677.97	325.159
2677.2	325.114
2676.42	341.162
2675.64	357.206
2674.87	392.55
2674.09	334.587
2673.31	344.191
2672.53	315.197
2671.76	344.096
2670.98	340.833
2670.2	331.141
2669.42	324.667
2668.65	331.05
2667.87	340.646
2667.09	369.517
2666.31	295.573
2665.53	356.566
2664.75	359.729
2663.98	327.565
2663.2	311.465
2662.42	337.107
2661.64	330.64
2660.86	343.433
2660.08	308.084
2659.3	317.668
2658.52	336.874
2657.74	349.66
2656.97	336.782
2656.19	288.63
2655.41	295.003
2654.63	323.818
2653.85	320.568
2653.07	365.397
2652.29	291.636
2651.51	339.661
2650.73	365.246
2649.95	349.178
2649.17	368.348
2648.38	355.487
2647.6	342.629
2646.82	268.943
2646.04	316.925
2645.26	316.881
2644.48	300.836
2643.7	345.593
2642.92	374.341
2642.14	335.901
2641.35	323.06
2640.57	323.015
2639.79	348.553
2639.01	297.348
2638.23	342.063
2637.44	316.445
2636.66	310.009
2635.88	377.072
2635.1	306.728
2634.31	322.659
2633.53	341.78
2632.75	319.377
2631.97	338.493
2631.18	296.938
2630.4	274.55
2629.62	325.585
2628.83	322.348
2628.05	293.584
2627.27	347.785
2626.48	309.454
2625.7	363.638
2624.92	350.83
2624.13	338.026
2623.35	341.168
2622.56	369.813
2621.78	334.699
2620.99	369.711
2620.21	286.805
2619.43	337.747
2618.64	289.912
2617.86	321.726
2617.07	343.977
2616.29	347.114
2615.5	321.593
2614.72	347.018
2613.93	311.955
2613.14	305.546
2612.36	276.863
2611.57	318.19
2610.79	314.964
2610	318.102
2609.22	305.336
2608.43	356.176
2607.64	362.486
2606.86	282.954
2606.07	346.492
2605.28	273.341
2604.5	301.905
2603.71	330.461
2602.92	298.645
2602.14	320.84
2601.35	327.148
2600.56	314.4
2599.78	311.181
2598.99	301.614
2598.2	314.27
2597.41	368.184
2596.62	311.009
2595.84	310.966
2595.05	326.787
2594.26	317.225
2593.47	361.587
2592.68	332.994
2591.9	304.41
2591.11	304.368
2590.32	304.326
2589.53	310.623
2588.74	326.426
2587.95	329.55
2587.16	364.356
2586.37	319.956
2585.58	351.586
2584.8	294.531
2584.01	354.655
2583.22	332.443
2582.43	367.22
2581.64	310.195
2580.85	338.635
2580.06	319.602
2579.27	316.394
2578.48	316.351
2577.69	313.144
2576.9	303.613
2576.1	332.031
2575.31	354.117
2574.52	300.326
2573.73	325.571
2572.94	328.687
2572.15	306.521
2571.36	375.99
2570.57	363.301
2569.78	341.14
2568.98	290.561
2568.19	337.888
2567.4	356.786
2566.61	322.01
2565.82	277.774
2565.03	356.638
2564.23	312.41
2563.44	299.746
2562.65	328.097
2561.86	343.824
2561.06	350.084
2560.27	353.189
2559.48	340.528
2558.68	337.329
2557.89	264.782
2557.1	352.994
2556.3	286.768
2555.51	318.237
2554.72	302.441
2553.92	343.349
2553.13	377.947
2552.34	305.465
2551.54	324.315
2550.75	365.197
2549.95	330.521
2549.16	327.328
2548.37	333.576
2547.57	361.849
2546.78	298.877
2545.98	324.001
2545.19	364.844
2544.39	323.912
2543.6	345.877
2542.8	355.261
2542.01	308.06
2541.21	314.304
2540.42	320.545
2539.62	301.648
2538.82	314.173
2538.03	289
2537.23	323.509
2536.44	304.622
2535.64	335.98
2534.84	307.677
2534.05	329.609
2533.25	364.089
2532.45	288.72
2531.66	326.334
2530.86	291.778
2530.06	326.244
2529.27	310.516
2528.47	304.201
2527.67	360.601
2526.87	322.928
2526.08	313.479
2525.28	347.914
2524.48	316.527
2523.68	363.485
2522.89	347.77
2522.09	350.854
2521.29	347.674
2520.49	303.781
2519.69	353.84
2518.89	297.435
2518.1	319.307
2517.3	334.913
2516.5	347.385
2515.7	322.304
2514.9	322.26
2514.1	328.472
2513.3	309.659
2512.5	356.528
2511.7	322.081
2510.9	309.531
2510.1	325.118
2509.3	312.571
2508.5	300.026
2507.7	356.232
2506.9	296.819
2506.1	340.514
2505.3	324.849
2504.5	302.942
2503.7	337.25
2502.9	337.203
2502.1	324.669
2501.3	321.503
2500.5	333.942
2499.7	333.896
2498.9	365.051
2498.09	336.923
2497.29	308.804
2496.49	352.424
2495.69	327.428
2494.89	389.742
2494.09	299.28
2493.28	317.941
2492.48	352.18
2491.68	302.272
2490.88	327.157
2490.08	336.458
2489.27	330.181
2488.47	298.991
2487.67	277.151
2486.86	323.817
2486.06	336.225
2485.26	308.163
2484.45	336.132
2483.65	308.078
2482.85	339.15
2482.04	339.103
2481.24	304.84
2480.44	320.348
2479.63	276.768
2478.83	286.057
2478.02	320.215
2477.22	289.087
2476.42	391.612
2475.61	348.051
2474.81	341.788
2474	341.741
2473.2	310.631
2472.39	354.07
2471.59	350.916
2470.78	332.237
2469.98	344.609
2469.17	313.52
2468.37	353.825
2467.56	381.706
2466.75	294.773
2465.95	322.654
2465.14	356.731
2464.34	350.479
2463.53	350.43
2462.72	344.18
2461.92	347.233
2461.11	328.586
2460.31	331.64
2459.5	340.891
2458.69	353.238
2457.88	343.894
2457.08	350.042
2456.27	337.605
2455.46	343.752
2454.66	349.897
2453.85	300.312
2453.04	365.278
2452.23	349.752
2451.43	408.503
2450.62	327.995
2449.81	343.419
2449	315.53
2448.19	358.789
2447.38	349.461
2446.58	281.385
2445.77	367.915
2444.96	355.499
2444.15	330.722
2443.34	309.044
2442.53	302.821
2441.72	330.585
2440.91	333.628
2440.1	315.05
2439.29	333.536
2438.48	342.753
2437.68	364.318
2436.87	336.484
2436.06	367.304
2435.25	327.133
2434.44	330.173
2433.62	370.236
2432.81	323.912
2432	305.36
2431.19	323.822
2430.38	299.109
2429.57	351.481
2428.76	363.763
2427.95	354.466
2427.14	332.844
2426.33	335.879
2425.52	323.508
2424.7	335.786
2423.89	335.739
2423.08	372.65
2422.27	320.25
2421.46	391.02
2420.64	310.925
2419.83	347.819
2419.02	326.227
2418.21	344.645
2417.4	359.981
2416.58	316.863
2415.77	341.426
2414.96	332.152
2414.14	384.382
2413.33	347.433
2412.52	347.385
2411.7	347.337
2410.89	374.949
2410.08	322.657
2409.26	347.193
2408.45	356.361
2407.64	359.383
2406.82	337.835
2406.01	353.142
2405.19	334.671
2404.38	349.974
2403.56	334.578
2402.75	368.292
2401.94	334.485
2401.12	334.439
2400.31	300.646
2399.49	334.346
2398.68	334.3
2397.86	288.255
2397.05	325.009
2396.23	355.62
2395.41	324.918
2394.6	334.068
2393.78	266.604
2392.97	327.847
2392.15	330.865
2391.33	349.198
2390.52	315.46
2389.7	318.479
2388.89	327.62
2388.07	349.005
2387.25	352.017
2386.44	333.605
2385.62	336.619
2384.8	333.512
2383.98	321.229
2383.17	290.595
2382.35	348.666
2381.53	342.502
2380.71	351.627
2379.9	363.807
2379.08	348.473
2378.26	354.537
2377.44	271.978
2376.62	314.717
2375.81	366.61
2374.99	342.122
2374.17	363.454
2373.35	363.403
2372.53	326.712
2371.71	363.302
2370.89	335.779
2370.07	335.733
2369.26	347.893
2368.44	341.742
2367.62	317.288
2366.8	350.798
2365.98	344.65
2365.16	323.255
2364.34	362.849
2363.52	335.36
2362.7	329.217
2361.88	411.464
2361.06	350.458
2360.24	316.892
2359.42	332.081
2358.6	374.681
2357.77	374.629
2356.95	347.169
2356.13	304.492
2355.31	325.761
2354.49	337.893
2353.67	340.889
2352.85	374.318
2352.03	304.281
2351.2	328.578
2350.38	365.036
2349.56	334.57
2348.74	322.359
2347.92	310.151
2347.09	316.189
2346.27	358.703
2345.45	352.574
2344.63	364.681
2343.8	349.438
2342.98	306.855
2342.16	334.152
2341.33	346.255
2340.51	300.653
2339.69	367.414
2338.86	352.183
2338.04	339.991
2337.22	352.085
2336.39	321.688
2335.57	306.471
2334.75	361.04
2333.92	345.822
2333.1	357.907
2332.27	409.413
2331.45	497.291
2330.62	479.031
2329.8	442.588
2328.97	415.247
2328.15	324.272
2327.32	324.227
2326.5	339.331
2325.67	348.371
2324.85	366.496
2324.02	333.132
2323.2	366.395
2322.37	351.206
2321.55	326.939
2320.72	354.135
2319.89	360.138
2319.07	335.881
2318.24	338.859
2317.41	338.812
2316.59	317.592
2315.76	341.743
2314.93	387.053
2314.11	287.226
2313.28	338.577
2312.45	317.372
2311.63	368.705
2310.8	353.545
2309.97	323.282
2309.14	329.279
2308.32	338.295
2307.49	344.288
2306.66	326.122
2305.83	326.077
2305	344.144
2304.18	338.06
2303.35	334.995
2302.52	344.001
2301.69	331.885
2300.86	337.872
2300.03	304.646
2299.2	277.46
2298.38	343.762
2297.55	328.639
2296.72	334.622
2295.89	346.633
2295.06	382.75
2294.23	361.603
2293.4	307.32
2292.57	352.465
2291.74	310.247
2290.91	349.355
2290.08	328.228
2289.25	310.117
2288.42	337.168
2287.59	358.191
2286.76	319.017
2285.93	355.082
2285.09	312.91
2284.26	351.975
2283.43	333.879
2282.6	315.787
2281.77	327.772
2280.94	330.733
2280.11	336.699
2279.28	333.647
2278.44	408.735
2277.61	381.634
2276.78	303.462
2275.95	309.428
2275.11	348.433
2274.28	306.338
2273.45	369.357
2272.62	348.288
2271.78	327.225
2270.95	324.178
2270.12	351.144
2269.29	333.09
2268.45	375.049
2267.62	356.997
2266.79	356.948
2265.95	350.9
2265.12	356.848
2264.28	362.795
2263.45	329.768
2262.62	332.72
2261.78	365.641
2260.95	341.617
2260.11	371.532
2259.28	341.522
2258.44	299.539
2257.61	314.472
2256.77	350.363
2255.94	305.402
2255.1	332.303
2254.27	314.297
2253.43	347.175
2252.6	332.164
2251.76	344.086
2250.93	344.038
2250.09	346.982
2249.26	331.979
2248.42	331.933
2247.58	352.817
2246.75	328.851
2245.91	349.729
2245.07	328.76
2244.24	352.62
2243.4	346.596
2242.56	346.547
2241.73	358.447
2240.89	376.317
2240.05	403.141
2239.22	361.283
2238.38	340.335
2237.54	367.153
2236.7	334.271
2235.87	346.161
2235.03	313.292
2234.19	340.098
2233.35	393.743
2232.51	345.969
2231.68	307.153
2230.84	351.836
2230	369.674
2229.16	357.699
2228.32	339.767
2227.48	330.78
2226.64	318.815
2225.8	324.729
2224.96	333.62
2224.12	324.639
2223.29	363.306
2222.45	279.886
2221.61	389.999
2220.77	345.295
2219.93	342.27
2219.09	348.174
2218.25	324.322
2217.41	324.277
2216.57	356.953
2215.72	347.98
2214.88	327.115
2214.04	359.777
2213.2	368.645
2212.36	318.061
2211.52	318.017
2210.68	329.859
2209.84	338.727
2209	338.68
2208.15	314.869
2207.31	329.675
2206.47	302.903
2205.63	338.491
2204.79	317.662
2203.94	353.239
2203.1	350.222
2202.26	350.173
2201.42	356.058
2200.57	406.443
2199.73	302.565
2198.89	364.807
2198.05	341.032
2197.2	370.636
2196.36	358.725
2195.52	299.39
2194.67	275.638
2193.83	302.27
2192.98	373.34
2192.14	316.999
2191.3	355.463
2190.45	355.413
2189.61	328.712
2188.76	337.549
2187.92	355.265
2187.08	337.455
2186.23	340.367
2185.39	316.645
2184.54	334.354
2183.7	355.017
2182.85	354.968
2182.01	357.876
2181.16	360.783
2180.31	289.769
2179.47	339.988
2178.62	339.94
2177.78	328.07
2176.93	307.338
2176.09	322.069
2175.24	298.39
2174.39	327.887
2173.55	389.866
2172.7	395.718
2171.85	360.23
2171.01	374.941
2170.16	336.514
2169.31	345.322
2168.47	362.98
2167.62	300.966
2166.77	356.978
2165.92	327.43
2165.08	342.132
2164.23	377.472
2163.38	309.602
2162.53	353.781
2161.68	359.627
2160.84	344.84
2159.99	324.164
2159.14	362.423
2158.29	324.073
2157.44	326.974
2156.59	356.381
2155.74	326.882
2154.89	388.671
2154.05	409.225
2153.2	382.675
2152.35	373.792
2151.5	338.426
2150.65	373.687
2149.8	364.809
2148.95	358.875
2148.1	347.06
2147.25	361.716
2146.4	323.44
2145.55	329.275
2144.7	338.048
2143.85	367.392
2143	355.586
2142.14	337.906
2141.29	343.735
2140.44	317.25
2139.59	317.205
2138.74	325.971
2137.89	364.097
2137.04	349.367
2136.19	343.447
2135.33	355.139
2134.48	337.482
2133.63	396.119
2132.78	384.329
2131.93	372.541
2131.07	340.226
2130.22	343.111
2129.37	360.657
2128.52	351.811
2127.66	360.556
2126.81	375.16
2125.96	322.358
2125.1	377.985
2124.25	369.144
2123.4	345.658
2122.54	336.823
2121.69	360.203
2120.84	360.153
2119.98	371.813
2119.13	371.761
2118.27	354.148
2117.42	348.246
2116.56	356.976
2115.71	304.265
2114.86	351.025
2114	342.202
2113.15	368.474
2112.29	353.802
2111.44	353.753
2110.58	344.934
2109.73	356.577
2108.87	382.828
2108.01	368.165
2107.16	379.799
2106.3	333.008
2105.45	321.279
2104.59	359.198
2103.73	356.228
2102.88	379.534
2102.02	341.533
2101.17	312.298
2100.31	367.702
2099.45	335.554
2098.59	335.507
2097.74	370.465
2096.88	326.663
2096.02	347.031
2095.17	352.815
2094.31	314.865
2093.45	349.801
2092.59	323.521
2091.74	367.188
2090.88	367.137
2090.02	396.219
2089.16	334.992
2088.3	355.333
2087.44	352.371
2086.59	369.792
2085.73	349.361
2084.87	413.353
2084.01	384.189
2083.15	395.776
2082.29	343.346
2081.43	320.024
2080.57	346.159
2079.71	340.294
2078.85	348.97
2077.99	340.198
2077.13	360.502
2076.27	343.01
2075.41	340.056
2074.55	345.82
2073.69	339.96
2072.83	377.681
2071.97	345.675
2071.11	336.913
2070.25	365.906
2069.39	394.891
2068.53	336.772
2067.67	336.725
2066.8	342.483
2065.94	345.337
2065.08	333.682
2064.22	356.845
2063.36	391.604
2062.5	350.944
2061.63	362.495
2060.77	353.745
2059.91	330.503
2059.05	359.444
2058.18	327.512
2057.32	312.976
2056.46	365.088
2055.6	362.14
2054.73	370.779
2053.87	388.105
2053.01	344.612
2052.14	373.519
2051.28	350.306
2050.42	361.836
2049.55	358.891
2048.69	384.885
2047.82	355.897
2046.96	355.847
2046.1	332.656
2045.23	358.64
2044.37	355.698
2043.5	344.082
2042.64	361.38
2041.77	320.861
2040.91	338.157
2040.04	361.228
2039.18	361.178
2038.31	335.126
2037.45	343.745
2036.58	369.691
2035.72	349.424
2034.85	366.7
2033.98	326.23
2033.12	340.618
2032.25	378.09
2031.38	352.065
2030.52	409.724
2029.65	349.082
2028.79	317.303
2027.92	386.478
2027.05	357.586
2026.18	351.77
2025.32	371.901
2024.45	328.611
2023.58	351.622
2022.72	340.046
2021.85	406.269
2020.98	403.331
2020.11	391.752
2019.24	354.256
2018.38	357.086
2017.51	348.398
2016.64	354.107
2015.77	351.179
2014.9	336.739
2014.03	351.08
2013.16	336.644
2012.3	368.243
2011.43	376.821
2010.56	388.273
2009.69	376.715
2008.82	347.91
2007.95	330.612
2007.08	382.306
2006.21	316.149
2005.34	373.578
2004.47	304.567
2003.6	353.363
2002.73	333.206
2001.86	373.368
2000.99	344.599
2000.12	335.937
1999.25	358.857
1998.37	341.584
1997.5	353.016
1996.63	358.706
1995.76	364.394
1994.89	367.212
1994.02	367.161
1993.15	318.352
1992.27	355.587
1991.4	355.537
1990.53	407.09
1989.66	398.434
1988.79	355.388
1987.91	349.607
1987.04	372.479
1986.17	381.022
1985.3	358.053
1984.42	372.323
1983.55	343.634
1982.68	363.629
1981.8	360.715
1980.93	346.352
1980.06	352.028
1979.18	351.978
1978.31	394.847
1977.44	377.627
1976.56	386.155
1975.69	386.101
1974.81	374.608
1973.94	351.682
1973.06	365.927
1972.19	371.592
1971.31	320.096
1970.44	322.909
1969.57	331.435
1968.69	339.959
1967.81	334.198
1966.94	342.719
1966.06	356.949
1965.19	356.899
1964.31	348.285
1963.44	365.362
1962.56	342.479
1961.68	393.796
1960.81	345.236
1959.93	393.685
1959.06	373.663
1958.18	342.239
1957.3	330.784
1956.43	382.059
1955.55	356.349
1954.67	381.952
1953.79	356.248
1952.92	376.146
1952.04	350.45
1951.16	378.889
1950.28	358.897
1949.41	373.086
1948.53	370.186
1947.65	347.357
1946.77	344.461
1945.89	344.413
1945.02	341.519
1944.14	361.39
1943.26	369.875
1942.38	347.064
1941.5	372.615
1940.62	364.031
1939.74	369.667
1938.86	386.674
1937.98	380.934
1937.1	346.772
1936.22	395.037
1935.34	377.932
1934.46	366.514
1933.58	346.577
1932.7	349.369
1931.82	389.08
1930.94	354.95
1930.06	354.9
1929.18	374.722
1928.3	374.669
1927.42	354.75
1926.54	405.778
1925.66	377.348
1924.78	354.601
1923.9	382.915
1923.01	343.157
1922.13	388.479
1921.25	354.402
1920.37	388.37
1919.49	351.468
1918.61	391.095
1917.72	357.036
1916.84	407.984
1915.96	388.097
1915.08	385.21
1914.19	365.332
1913.31	345.459
1912.43	348.241
1911.54	368.008
1910.66	362.296
1909.78	362.245
1908.89	333.897
1908.01	345.168
1907.13	370.579
1906.24	364.87
1905.36	350.678
1904.47	328.008
1903.59	347.752
1902.71	361.838
1901.82	384.398
1900.94	327.823
1900.05	378.639
1899.17	353.158
1898.28	322.035
1897.4	361.532
1896.51	384.074
1895.63	409.433
1894.74	412.199
1893.85	344.392
1892.97	349.988
1892.08	400.737
1891.2	352.712
1890.31	341.377
1889.42	363.896
1888.54	372.306
1887.65	324.312
1886.77	355.283
1885.88	374.968
1884.99	383.372
1884.1	346.678
1883.22	374.81
1882.33	377.575
1881.44	405.695
1880.56	360.567
1879.67	340.801
1878.78	340.753
1877.89	363.231
1877	371.626
1876.12	318.089
1875.23	323.674
1874.34	371.469
1873.45	385.485
1872.56	379.804
1871.67	365.686
1870.79	345.947
1869.9	402.142
1869.01	351.473
1868.12	373.915
1867.23	326.075
1866.34	356.946
1865.45	373.757
1864.56	351.226
1863.67	351.176
1862.78	365.172
1861.89	351.077
1861	387.535
1860.11	339.747
1859.22	339.699
1858.33	370.529
1857.44	370.477
1856.55	378.843
1855.66	361.955
1854.76	364.709
1853.87	395.514
1852.98	417.895
1852.09	339.317
1851.2	384.131
1850.31	358.846
1849.41	370.007
1848.52	381.166
1847.63	358.694
1846.74	339.03
1845.85	372.6
1844.95	369.747
1844.06	400.503
1843.17	389.245
1842.28	307.992
1841.38	372.338
1840.49	341.495
1839.6	375.032
1838.7	372.181
1837.81	358.139
1836.92	411.242
1836.02	391.604
1835.13	330.019
1834.23	318.787
1833.34	357.886
1832.45	402.565
1831.55	371.761
1830.66	368.914
1829.76	343.713
1828.87	368.81
1827.97	405.075
1827.08	360.327
1826.18	363.069
1825.29	379.772
1824.39	382.511
1823.5	337.79
1822.6	309.83
1821.7	396.303
1820.81	379.505
1819.91	368.291
1819.02	407.294
1818.12	368.187
1817.22	343.035
1816.33	359.718
1815.43	393.124
1814.53	370.767
1813.64	359.565
1812.74	423.614
1811.84	303.733
1810.94	364.986
1810.05	359.363
1809.15	328.673
1808.25	359.261
1807.35	381.487
1806.46	381.434
1805.56	361.893
1804.66	375.759
1803.76	370.14
1802.86	361.74
1801.97	356.125
1801.07	336.602
1800.17	394.964
1799.27	367.098
1798.37	336.459
1797.47	353.093
1796.57	380.842
1795.67	347.435
1794.77	372.397
1793.87	288.984
1792.97	358.401
1792.07	347.239
1791.17	333.302
1790.27	397.129
1789.37	341.538
1788.47	383.135
1787.57	352.546
1786.67	341.394
1785.77	335.795
1784.87	330.198
1783.97	366.219
1783.07	366.167
1782.16	357.794
1781.26	379.93
1780.36	379.876
1779.46	341.008
1778.56	399.173
1777.66	363.085
1776.75	385.204
1775.85	418.4
1774.95	387.866
1774.05	387.811
1773.14	382.217
1772.24	321.238
1771.34	365.496
1770.44	431.888
1769.53	420.755
1768.63	393.018
1767.73	379.126
1766.82	332.034
1765.92	379.019
1765.01	376.199
1764.11	331.894
1763.21	359.501
1762.3	376.04
1761.4	364.928
1760.49	370.405
1759.59	367.589
1758.68	378.591
1757.78	386.826
1756.87	372.959
1755.97	386.717
1755.06	353.52
1754.16	370.039
1753.25	356.181
1752.35	328.524
1751.44	372.643
1750.54	380.87
1749.63	367.018
1748.72	361.448
1747.82	411.055
1746.91	388.93
1746.01	397.149
1745.1	377.789
1744.19	352.921
1743.29	383.196
1742.38	402.437
1741.47	355.528
1740.56	347.21
1739.66	399.511
1738.75	438.023
1737.84	341.554
1736.93	388.325
1736.03	349.719
1735.12	421.255
1734.21	368.89
1733.3	366.086
1732.39	355.025
1731.48	390.748
1730.58	387.941
1729.67	371.381
1728.76	371.328
1727.85	374.026
1726.94	335.476
1726.03	362.922
1725.12	371.118
1724.21	371.066
1723.3	376.51
1722.39	346.23
1721.48	398.383
1720.57	340.638
1719.66	425.737
1718.75	376.244
1717.84	425.617
1716.93	384.374
1716.02	376.084
1715.11	406.223
1714.2	340.301
1713.29	392.388
1712.38	419.769
1711.47	403.25
1710.55	394.965
1709.64	359.257
1708.73	359.206
1707.82	326.256
1706.91	356.364
1705.99	370.018
1705.08	386.408
1704.17	397.314
1703.26	391.778
1702.34	372.547
1701.43	388.928
1700.52	375.181
1699.61	331.317
1698.69	336.746
1697.78	410.607
1696.87	344.861
1695.95	396.808
1695.04	355.709
1694.13	404.903
1693.21	363.814
1692.3	369.233
1691.38	339.099
1690.47	377.331
1689.55	333.535
1688.64	358.09
1687.72	382.637
1686.81	388.049
1685.9	366.135
1684.98	349.691
1684.06	445.247
1683.15	434.259
1682.23	382.312
1681.32	327.65
1680.4	390.394
1679.49	376.691
1678.57	368.45
1677.65	368.397
1676.74	384.716
1675.82	338.284
1674.91	379.152
1673.99	354.552
1673.07	354.502
1672.16	378.991
1671.24	340.771
1670.32	417.044
1669.4	373.379
1668.49	362.426
1667.57	389.621
1666.65	367.772
1665.73	359.548
1664.82	367.668
1663.9	413.908
1662.98	389.345
1662.06	397.457
1661.14	383.791
1660.22	356.521
1659.3	419.057
1658.39	334.654
1657.47	372.692
1656.55	394.399
1655.63	416.1
1654.71	407.883
1653.79	394.231
1652.87	432.234
1651.95	361.503
1651.03	415.805
1650.11	361.4
1649.19	407.537
1648.27	383.03
1647.35	385.692
1646.43	372.058
1645.51	385.583
1644.59	401.818
1643.67	361.042
1642.75	409.847
1641.82	393.505
1640.9	377.169
1639.98	417.811
1639.06	409.614
1638.14	428.542
1637.22	423.058
1636.29	409.44
1635.37	382.27
1634.45	395.77
1633.53	387.583
1632.6	384.818
1631.68	371.215
1630.76	417.219
1629.84	387.363
1628.91	403.559
1627.99	384.545
1627.07	357.414
1626.14	395.265
1625.22	419.571
1624.3	414.099
1623.37	416.746
1622.45	367.983
1621.52	397.69
1620.6	397.634
1619.68	394.873
1618.75	386.704
1617.83	351.499
1616.9	405.519
1615.98	421.68
1615.05	413.512
1614.13	437.774
1613.2	386.375
1612.28	399.828
1611.35	429.484
1610.43	402.415
1609.5	359.152
1608.57	391.501
1607.65	356.35
1606.72	402.187
1605.79	388.635
1604.87	393.977
1603.94	437.091
1603.02	410.052
1602.09	412.691
1601.16	418.026
1600.23	415.27
1599.31	434.084
1598.38	412.456
1597.45	380.053
1596.52	415.034
1595.6	388.029
1594.67	396.057
1593.74	393.307
1592.81	439.04
1591.88	395.888
1590.96	420.066
1590.03	379.621
1589.1	387.643
1588.17	441.42
1587.24	400.989
1586.31	400.932
1585.38	422.399
1584.45	419.649
1583.52	414.21
1582.59	419.53
1581.66	397.959
1580.73	414.033
1579.8	384.405
1578.87	362.848
1577.94	413.857
1577.01	437.981
1576.08	368.067
1575.15	437.857
1574.22	456.596
1573.29	408.192
1572.36	397.394
1571.43	437.608
1570.5	402.65
1569.57	432.116
1568.63	418.636
1567.7	402.478
1566.77	407.786
1565.84	402.363
1564.91	404.988
1563.97	421.021
1563.04	426.323
1562.11	386.049
1561.18	367.231
1560.24	388.62
1559.31	434.12
1558.38	372.433
1557.44	407.207
1556.51	468.757
1555.58	441.908
1554.64	439.168
1553.71	428.395
1552.78	406.918
1551.84	417.567
1550.91	382.715
1549.97	430.828
1549.04	436.117
1548.11	446.756
1547.17	430.644
1546.24	409.187
1545.3	398.433
1544.37	406.397
1543.43	409.013
1542.5	360.842
1541.56	414.241
1540.62	411.51
1539.69	430.154
1538.75	408.722
1537.82	373.941
1536.88	424.629
1535.94	416.558
1535.01	392.47
1534.07	419.109
1533.14	365.667
1532.2	440.34
1531.26	410.925
1530.32	389.523
1529.39	392.135
1528.45	421.419
1527.51	400.024
1526.57	402.634
1525.64	413.241
1524.7	415.847
1523.76	437.111
1522.82	421.059
1521.88	394.353
1520.95	380.976
1520.01	380.922
1519.07	415.492
1518.13	394.129
1517.19	423.362
1516.25	423.302
1515.31	380.651
1514.37	433.827
1513.43	401.832
1512.5	401.775
1511.56	430.982
1510.62	428.26
1509.68	412.242
1508.74	398.887
1507.8	441.372
1506.85	406.749
1505.91	406.691
1504.97	438.525
1504.03	411.89
1503.09	427.773
1502.15	443.651
1501.21	414.37
1500.27	403.687
1499.33	411.596
1498.39	403.572
1497.44	451.3
1496.5	427.346
1495.56	435.247
1494.62	411.303
1493.68	451.042
1492.73	456.284
1491.79	405.823
1490.85	408.417
1489.91	413.662
1488.96	479.886
1488.02	469.213
1487.08	474.448
1486.13	442.578
1485.19	461.064
1484.25	418.607
1483.3	439.74
1482.36	474.11
1481.41	463.449
1480.47	391.89
1479.53	476.555
1478.58	502.958
1477.64	442.011
1476.69	465.765
1475.75	484.221
1474.8	515.9
1473.86	428.532
1472.91	449.63
1471.97	483.945
1471.02	510.317
1470.08	478.519
1469.13	481.095
1468.18	518.028
1467.24	507.384
1466.29	488.816
1465.35	475.536
1464.4	483.393
1463.45	480.683
1462.51	493.818
1461.56	499.029
1460.61	520.077
1459.66	506.805
1458.72	535.764
1457.77	538.327
1456.82	522.419
1455.87	546.087
1454.93	575.025
1453.98	540.657
1453.03	553.765
1452.08	561.596
1451.13	593.15
1450.19	513.99
1449.24	537.636
1448.29	563.91
1447.34	545.387
1446.39	529.503
1445.44	568.937
1444.49	539.886
1443.54	563.508
1442.59	523.935
1441.64	584.407
1440.69	581.691
1439.74	528.974
1438.79	547.318
1437.84	528.823
1436.89	549.792
1435.94	526.042
1434.99	547.006
1434.04	549.557
1433.09	544.22
1432.14	562.544
1431.19	551.95
1430.24	494.056
1429.29	549.165
1428.33	514.933
1427.38	512.232
1426.43	512.159
1425.48	491.077
1424.53	530.393
1423.57	509.314
1422.62	477.742
1421.67	501.295
1420.72	540.587
1419.76	511.647
1418.81	495.834
1417.86	521.994
1416.9	540.278
1415.95	519.222
1415	513.904
1414.04	482.372
1413.09	560.939
1412.14	513.684
1411.18	534.574
1410.23	500.437
1409.27	495.126
1408.32	536.964
1407.36	481.889
1406.41	489.676
1405.46	476.515
1404.5	492.154
1403.54	489.466
1402.59	486.779
1401.63	505.027
1400.68	552.049
1399.72	502.267
1398.77	549.276
1397.81	557.043
1396.86	525.585
1395.9	528.124
1394.94	509.75
1393.99	520.132
1393.03	473.017
1392.07	493.854
1391.12	499.008
1390.16	485.876
1389.2	457.076
1388.24	443.953
1387.29	527.445
1386.33	553.477
1385.37	519.463
1384.41	459.359
1383.46	501.047
1382.5	503.585
1381.54	534.819
1380.58	524.309
1379.62	513.801
1378.66	503.297
1377.71	518.869
1376.75	508.367
1375.79	513.508
1374.83	526.465
1373.87	581.114
1372.91	521.104
1371.95	500.188
1370.99	500.116
1370.03	572.968
1369.07	510.39
1368.11	523.335
1367.15	554.499
1366.19	502.362
1365.23	515.303
1364.27	536.046
1363.31	509.952
1362.35	538.494
1361.38	520.21
1360.42	509.733
1359.46	517.461
1358.5	467.988
1357.54	582.301
1356.58	522.437
1355.61	504.17
1354.65	511.893
1353.69	524.811
1352.73	529.931
1351.77	496.09
1350.8	532.376
1349.84	529.703
1348.88	480.299
1347.91	503.593
1346.95	495.735
1345.99	500.854
1345.02	480.024
1344.06	498.116
1343.1	531.767
1342.13	523.91
1341.17	516.055
1340.2	495.238
1339.24	515.907
1338.28	502.873
1337.31	520.943
1336.35	469.041
1335.38	510.43
1334.42	528.491
1333.45	523.235
1332.49	536.109
1331.52	510.137
1330.55	528.188
1329.59	476.337
1328.62	528.037
1327.66	520.197
1326.69	494.246
1325.72	496.762
1324.76	530.321
1323.79	538.005
1322.83	530.169
1321.86	496.478
1320.89	488.65
1319.92	511.846
1318.96	514.357
1317.99	503.946
1317.02	483.202
1316.05	496.051
1315.09	534.728
1314.12	547.566
1313.15	575.895
1312.18	534.498
1311.21	552.494
1310.25	513.694
1309.28	513.62
1308.31	534.192
1307.34	516.053
1306.37	518.559
1305.4	544.28
1304.43	533.886
1303.46	495.127
1302.49	525.997
1301.52	546.546
1300.55	512.958
1299.58	569.585
1298.61	541.157
1297.64	510.161
1296.67	535.85
1295.7	522.894
1294.73	540.847
1293.76	494.418
1292.79	527.818
1291.82	558.635
1290.85	476.187
1289.88	499.281
1288.9	522.369
1287.93	542.877
1286.96	573.669
1285.99	532.433
1285.02	506.638
1284.04	552.851
1283.07	545.059
1282.1	511.562
1281.13	547.472
1280.15	485.716
1279.18	495.924
1278.21	562.652
1277.23	547.158
1276.26	547.08
1275.29	562.41
1274.31	546.923
1273.34	534.007
1272.37	521.096
1271.39	521.021
1270.42	492.718
1269.44	536.267
1268.47	531.059
1267.49	520.722
1266.52	515.518
1265.55	510.315
1264.57	530.754
1263.6	507.605
1262.62	525.475
1261.64	512.585
1260.67	497.136
1259.69	535.497
1258.72	543.106
1257.74	525.098
1256.77	525.022
1255.79	483.975
1254.81	540.234
1253.84	499.196
1252.86	511.923
1251.88	509.29
1250.91	534.805
1249.93	498.909
1248.95	539.768
1247.97	524.344
1247	496.137
1246.02	488.395
1245.04	488.324
1244.06	480.585
1243.08	480.516
1242.11	490.67
1241.13	518.706
1240.15	495.638
1239.17	477.686
1238.19	500.604
1237.21	554.16
1236.23	510.674
1235.25	508.047
1234.27	479.895
1233.3	487.483
1232.32	528.243
1231.34	477.137
1230.36	466.863
1229.38	484.652
1228.4	517.738
1227.42	548.264
1226.43	558.384
1225.45	504.768
1224.47	514.891
1223.49	512.269
1222.51	504.55
1221.53	509.573
1220.55	496.763
1219.57	504.333
1218.59	483.886
1217.6	491.456
1216.62	496.477
1215.64	519.317
1214.66	498.879
1213.68	463.179
1212.69	557.261
1211.71	541.916
1210.73	513.856
1209.74	506.151
1208.76	508.622
1207.78	500.92
1206.79	490.679
1205.81	531.28
1204.83	487.996
1203.84	487.925
1202.86	503.101
1201.88	500.488
1200.89	497.876
1199.91	533.361
1198.92	540.903
1197.94	528.13
1196.95	507.744
1195.97	540.669
1194.98	535.516
1194	517.675
1193.01	512.526
1192.03	527.674
1191.04	535.207
1190.06	492.016
1189.07	514.767
1188.08	537.512
1187.1	529.829
1186.11	557.635
1185.13	511.936
1184.14	532.134
1183.15	526.99
1182.17	534.514
1181.18	547.102
1180.19	526.763
1179.2	516.558
1178.22	511.42
1177.23	506.284
1176.24	496.087
1175.25	539.037
1174.27	564.263
1173.28	541.412
1172.29	533.745
1171.3	617.133
1170.31	584.169
1169.32	485.473
1168.33	548.606
1167.35	553.583
1166.36	530.756
1165.37	482.666
1164.38	528.077
1163.39	525.474
1162.4	540.554
1161.41	512.695
1160.42	530.298
1159.43	557.995
1158.44	522.571
1157.45	532.593
1156.46	532.516
1155.47	577.86
1154.48	595.438
1153.48	557.512
1152.49	542.298
1151.5	605.269
1150.51	564.836
1149.52	547.106
1148.53	572.236
1147.54	582.235
1146.54	582.151
1145.55	582.068
1144.56	604.658
1143.57	576.862
1142.57	612.04
1141.58	554.03
1140.59	579.13
1139.6	574.011
1138.6	609.17
1137.61	601.531
1136.62	591.379
1135.62	649.165
1134.63	583.661
1133.63	601.184
1132.64	575.947
1131.65	616.099
1130.65	631.096
1129.66	628.491
1128.66	638.455
1127.67	673.548
1126.67	620.681
1125.68	623.104
1124.68	630.55
1123.69	683.207
1122.69	572.605
1121.7	672.965
1120.7	655.293
1119.7	690.343
1118.71	635.024
1117.71	622.385
1116.72	629.823
1115.72	634.749
1114.72	619.607
1113.73	652.123
1112.73	672.092
1111.73	621.846
1110.74	661.869
1109.74	681.827
1108.74	646.64
1107.74	666.595
1106.75	633.925
1105.75	666.402
1104.75	668.811
1103.75	618.623
1102.75	668.618
1101.75	701.071
1100.76	693.459
1099.76	673.334
1098.76	713.281
1097.76	680.647
1096.76	658.031
1095.76	657.936
1094.76	697.861
1093.76	675.252
1092.76	665.152
1091.76	645.054
1090.76	687.459
1089.76	699.857
1088.76	702.255
1087.76	637.185
1086.76	677.068
1085.76	699.452
1084.76	641.905
1083.76	681.769
1082.76	684.168
1081.75	686.565
1080.75	661.504
1079.75	688.863
1078.75	686.268
1077.75	736.072
1076.75	673.595
1075.74	663.52
1074.74	698.341
1073.74	675.797
1072.74	695.646
1071.73	730.447
1070.73	727.849
1069.73	752.667
1068.72	707.704
1067.72	739.991
1066.72	742.376
1065.71	729.814
1064.71	722.237
1063.71	697.232
1062.7	744.436
1061.7	736.86
1060.69	709.374
1059.69	756.557
1058.68	706.681
1057.68	726.482
1056.67	778.617
1055.67	738.708
1054.66	815.695
1053.66	760.873
1052.65	735.902
1051.65	760.653
1050.64	740.66
1049.63	842.441
1048.63	800.079
1047.62	822.322
1046.62	859.463
1045.61	886.659
1044.6	891.497
1043.6	958.407
1042.59	978.128
1041.58	1010.26
1040.57	1111.86
1039.57	1141.48
1038.56	1260.41
1037.55	1361.94
1036.54	1379.1
1035.53	1624.43
1034.53	1542.37
1033.52	1720.65
1032.51	1866.66
1031.5	1933.32
1030.49	1965.25
1029.48	2007.09
1028.47	2128.2
1027.47	2140.28
1026.46	2330.68
1025.45	2379.88
1024.44	2448.86
1023.43	2488.12
1022.42	2522.41
1021.41	2618.57
1020.4	2771.62
1019.39	2847.93
1018.38	2963.79
1017.37	2928.73
1016.35	3185.52
1015.34	3293.87
1014.33	3172.24
1013.32	3448.66
1012.31	3465.46
1011.3	3613.25
1010.29	3615.19
1009.27	3750.56
1008.26	3846.36
1007.25	3994
1006.24	4072.45
1005.23	4343.49
1004.21	4515.68
1003.2	4515.03
1002.19	4840.18
1001.17	4948.06
1000.16	5023.84
999.148	5247.62
998.134	5503.41
997.121	5907.1
996.107	6251.5
995.093	6652.5
994.079	7028.74
993.065	7619.32
992.051	8167.83
991.036	8888.68
990.021	9629.04
989.007	10482.5
987.992	11136.2
986.977	11691.2
985.961	12809.9
984.946	12638.2
983.931	13118.9
982.915	13178.5
981.899	13353.8
980.883	13445.4
979.867	13492.6
978.851	13650.6
977.834	13717.4
976.818	13641.7
975.801	13526.6
974.784	13485.3
973.767	13350.6
972.75	13528.1
971.733	13309.9
970.715	13293.2
969.698	13517.3
968.68	13282
967.662	13122.8
966.644	13383.7
965.626	13489.8
964.608	13092.6
963.589	13257.6
962.571	13263
961.552	12959.3
960.533	12802.8
959.514	13053.6
958.495	12968.3
957.475	12878.2
956.456	13045.5
955.436	12864.6
954.416	12688.7
953.396	12579
952.376	12788
951.356	12849.8
950.336	12865.1
949.315	12760.3
948.294	12976.5
947.273	12955
946.252	12874.8
945.231	12943.9
944.21	13252.9
943.189	13348.9
942.167	13709.1
941.145	13670.4
940.123	13443.4
939.101	12641.5
938.079	12042.9
937.057	10994.5
936.034	10188.5
935.012	9194.5
933.989	8645.63
932.966	7886.74
931.943	7184.27
930.92	6413.6
929.896	6012.03
928.873	5300.37
927.849	4601.12
926.825	4058.36
925.801	3689.11
924.777	3346.81
923.753	3243.81
922.729	3004.18
921.704	2828.05
920.679	2720.3
919.655	2700.39
918.63	2534.14
917.604	2594.74
916.579	2535.84
915.554	2479.4
914.528	2479.04
913.502	2432.37
912.476	2422.27
911.45	2363.44
910.424	2387.46
909.398	2214.17
908.371	2247.94
907.345	2335.28
906.318	2242.42
905.291	2305.39
904.264	2249.07
903.237	2219.54
902.209	2289.78
901.182	2240.79
900.154	2152.89
899.126	2230.41
898.098	2215.49
897.07	2278.39
896.042	2275.63
895.013	2199.94
893.985	2170.45
892.956	2245.47
891.927	2133.38
890.898	2140.35
889.869	2186.19
888.84	2171.3
887.81	2161.27
886.78	2073.55
885.751	2058.68
884.721	2111.78
883.691	2009.54
882.66	2232.5
881.63	2118.14
880.599	2132.39
879.569	2117.52
878.538	2095.39
877.507	2109.63
876.476	2157.82
875.445	2082.35
874.413	2123.26
873.382	2144.76
872.35	2112.94
871.318	2161.09
870.286	2066.3
869.254	2068.43
868.221	2138.35
867.189	2053.29
866.156	2067.52
865.123	2038.17
864.091	2042.72
863.057	2098.08
862.024	2046.96
860.991	2082.95
859.957	2041.53
858.924	1980.77
857.89	2077.2
856.856	2033.38
855.822	2081.43
854.787	2061.79
853.753	2088.08
852.718	2121.6
851.684	2099.55
850.649	2096.83
849.614	2103.77
848.578	2086.56
847.543	2064.52
846.508	2064.22
845.472	2073.58
844.436	2140.85
843.4	2104.34
842.364	2075.08
841.328	2082.02
840.291	2096.19
839.255	2127.24
838.218	2179.98
837.181	2141.08
836.144	2150.41
835.107	2140.46
834.07	2154.61
833.032	2322.97
831.995	2250.35
830.957	2240.39
829.919	2312.32
828.881	2227.69
827.843	2379.07
826.804	2347.42
825.766	2255.61
824.727	2344.33
823.688	2384.9
822.649	2309.96
821.61	2283.16
820.571	2249.15
819.531	2354.65
818.492	2262.92
817.452	2274.62
816.412	2264.67
815.372	2233.09
814.332	2235.17
813.292	2227.63
812.251	2366.66
811.211	2212.57
810.17	2166.61
809.129	2190.31
808.088	2163.57
807.046	2151.25
806.005	2143.74
804.963	2131.42
803.922	2083.11
802.88	2159.59
801.838	2065.71
800.796	2055.81
799.753	2048.32
798.711	2004.85
797.668	1990.17
796.626	1939.53
795.583	1946.44
794.54	1888.64
793.496	2036.94
792.453	1895.27
791.409	1959.68
790.366	1875.56
789.322	1923.18
788.278	1851.06
787.234	1886.71
786.189	1838.55
785.145	1874.19
784.1	1720.75
783.056	1785.1
782.011	1763.31
780.966	1818.07
779.92	1693.43
778.875	1709.92
777.83	1762.28
776.784	1690.3
775.738	1783.28
774.692	1634.83
773.646	1701.51
772.6	1627.19
771.553	1691.45
770.507	1629.1
769.46	1593.04
768.413	1647.73
767.366	1573.47
766.319	1625.76
765.271	1584.94
764.224	1606.19
763.176	1498.57
762.128	1643.9
761.08	1595.94
760.032	1595.71
758.984	1609.79
757.936	1554.71
756.887	1552.1
755.838	1582.86
754.789	1527.81
753.74	1568.1
752.691	1505.92
751.642	1453.28
750.592	1414.96
749.543	1433.8
748.493	1435.98
747.443	1409.57
746.393	1409.37
745.342	1387.74
744.292	1375.64
743.241	1401.61
742.191	1437.09
741.14	1363.14
740.089	1448.57
739.038	1431.71
737.986	1388.7
736.935	1395.63
735.883	1435.83
734.831	1418.99
733.779	1392.64
732.727	1466.09
731.675	1375.6
730.623	1406.28
729.57	1368.07
728.517	1405.87
727.464	1441.28
726.411	1379.34
725.358	1388.63
724.305	1402.67
723.251	1426.19
722.198	1449.71
721.144	1394.94
720.09	1394.73
719.036	1439.59
717.981	1401.44
716.927	1377.52
715.872	1384.43
714.818	1384.23
713.763	1469.34
712.708	1395.67
711.653	1528.14
710.597	1442.64
709.542	1494.54
708.486	1473.01
707.43	1498.84
706.374	1508.09
705.318	1581.25
704.262	1538.41
703.205	1573.68
702.149	1616.04
701.092	1615.81
700.035	1551.7
698.978	1655.54
697.921	1667.12
696.863	1669.24
695.806	1661.9
694.748	1723.12
693.69	1798.49
692.632	1857.3
691.574	1835.76
690.516	1797.7
689.458	1887.19
688.399	1938.87
687.34	1907.89
686.281	2037.46
685.222	2006.47
684.163	2010.9
683.104	2043.64
682.044	2130.64
680.984	2177.51
679.924	2278.62
678.864	2179.23
677.804	2310.97
676.744	2416.73
675.684	2404.59
674.623	2397.17
673.562	2505.22
672.501	2436.52
671.44	2469.15
670.379	2497.05
669.317	2423.67
668.256	2543.42
667.194	2561.89
666.132	2361.39
665.07	2469.33
664.008	2461.91
662.946	2376.83
661.883	2322.36
660.821	2338.49
659.758	2295.8
658.695	2227.26
657.632	2217.53
656.568	2214.85
655.505	2148.7
654.441	2237.71
653.378	2251.48
652.314	2152.46
651.25	2156.84
650.185	2102.49
649.121	2130.37
648.057	2186.42
646.992	2040.52
645.927	2035.52
644.862	2133.81
643.797	2180.44
642.732	2097.99
641.666	2095.33
640.601	2151.33
639.535	2050.15
638.469	2080.34
637.403	2049.55
636.336	2093.79
635.27	2070.04
634.204	2029.89
633.137	2060.06
632.07	2003.52
631.003	2111
629.936	2080.24
628.868	2182.99
627.801	2245.9
626.733	2339.23
625.665	2366.98
624.597	2312.8
623.529	2588.64
622.461	2543.8
621.393	2641.7
620.324	2603.88
619.255	2589.46
618.186	2642.87
617.117	2630.79
616.048	2548.57
614.979	2485.07
613.909	2419.26
612.839	2390.86
611.77	2315.73
610.699	2184.55
609.629	2137.51
608.559	2158.22
607.489	2101.85
606.418	1938.09
605.347	1947.14
604.276	1956.19
603.205	1946.57
602.134	1829.6
601.062	1834
599.991	1745.07
598.919	1777.47
597.847	1737.56
596.775	1769.96
595.703	1793.01
594.63	1687.84
593.558	1671.28
592.485	1675.69
591.412	1668.45
590.339	1735.78
589.266	1686.6
588.193	1702.66
587.119	1681.45
586.046	1650.93
584.972	1646.03
583.898	1652.77
582.824	1696.75
581.75	1622.03
580.675	1610.16
579.601	1584.33
578.526	1623.64
577.451	1723.41
576.376	1727.81
575.301	1697.33
574.225	1750.55
573.15	1694.5
572.074	1747.71
570.998	1796.25
569.922	1874.98
568.846	1865.41
567.77	1867.46
566.693	1922.92
565.617	1983.01
564.54	1927
563.463	1970.82
562.386	1986.78
561.308	2095.55
560.231	2116.13
559.153	2157.58
558.076	2273.24
556.998	2282.18
555.92	2263.29
554.841	2362.66
553.763	2538.5
552.684	2552.03
551.606	2646.68
550.527	2815.45
549.448	2868.32
548.369	2955.93
547.289	3133.84
546.21	3364.97
545.13	3417.73
544.05	3614.02
542.97	3912.1
541.89	4152.23
540.81	4211.79
539.729	4650.8
538.649	4862.95
537.568	5306.36
536.487	5825.96
535.406	6336.15
534.325	7086.66
533.243	7688.99
532.162	8862.07
531.08	10159.6
529.998	11741
528.916	14366.2
527.834	17923.9
526.751	23326.1
525.669	31698.8
524.586	46709.9
523.503	74550.8
522.42	131160
521.337	146477
520.254	146456
519.17	146434
518.087	146412
517.003	131404
515.919	75278.8
514.835	47277.5
513.75	31889.5
512.666	23355.1
511.581	17856.6
510.497	14311.8
509.412	11708.1
508.327	9865.53
507.241	8445.05
506.156	7501.76
505.07	6544.94
503.985	5823.26
502.899	5269.86
501.813	4916.89
500.726	4573.23
499.64	4358.54
498.554	4072.58
497.467	3798.22
496.38	3643.54
495.293	3530.31
494.206	3458.5
493.118	3308.54
492.031	3158.63
490.943	3066.22
489.856	2886.51
488.768	2886.09
487.679	2805.25
486.591	2800.24
485.503	2664.31
484.414	2569.76
483.325	2431.62
482.236	2373.86
481.147	2405.65
480.058	2373.16
478.969	2269.54
477.879	2360.99
476.789	2227.58
475.699	2202.02
474.609	2096.2
473.519	2079.83
472.429	2072.65
471.338	2067.76
470.247	2060.58
469.156	1952.56
468.065	2009.56
466.974	1949.69
465.883	1951.69
464.791	1914.76
463.7	1861.81
462.608	1802
461.516	1785.71
460.424	1764.84
459.331	1698.21
458.239	1668.21
457.146	1727.45
456.053	1846.15
454.96	1937.37
453.867	2069.73
452.774	2229.49
451.68	2270.32
450.587	2407.14
449.493	2550.78
448.399	2431.57
447.305	2495.19
446.211	2599.91
445.116	2784.55
444.022	2838.96
442.927	2927.6
441.832	3023.06
440.737	3043.16
439.642	3102.06
438.546	3345.8
437.451	3359
436.355	3525.06
435.259	3565.6
434.163	3608.41
433.067	3642.09
431.971	3634.71
430.874	3602.25
429.777	3606.28
428.68	3525.97
427.583	3530
426.486	3445.18
425.389	3415.05
424.291	3517.05
423.194	3484.64
422.096	3345.22
420.998	3490.44
419.9	3319.18
418.801	3418.85
417.703	3343.24
416.604	3370.05
415.505	3337.7
414.406	3339.48
413.307	3259.37
412.208	3229.33
411.109	3356.18
410.009	3389.79
408.909	3152.88
407.809	3347.87
406.709	3347.38
405.609	3369.6
404.508	3385.01
403.408	3357.25
402.307	3338.58
401.206	3319.92
400.105	3292.18
399.004	3321.21
397.902	3320.71
396.801	3401.92
395.699	3376.46
394.597	3412.26
393.495	3332.36
392.393	3483.83
391.29	3288.28
390.188	3453.32
389.085	3393.86
387.982	3470.43
386.879	3515.24
385.776	3569.11
384.672	3425.84
383.569	3590.7
382.465	3535.81
381.361	3607.76
380.257	3659.3
379.153	3636.12
378.049	3649.16
376.944	3605.62
375.84	3731.82
374.735	3719.95
373.63	3644.74
372.524	3734.68
371.419	3700.2
370.314	3654.42
369.208	3791.81
368.102	3644.3
366.996	3799.72
365.89	3692.94
364.784	3746.62
363.677	3791.25
362.57	3862.98
361.464	3796.9
360.357	3909.26
359.25	3944.81
358.142	3878.75
357.035	3984.27
355.927	3868.57
354.819	3996.63
353.711	4059.21
352.603	4087.94
351.495	4100.87
350.386	4228.81
349.278	4070.33
348.169	4218.54
347.06	4190.86
345.951	4296.18
344.842	4414.99
343.732	4200.26
342.623	4328.06
341.513	4431.04
340.403	4351.55
339.293	4395.95
338.182	4494.37
337.072	4509.46
335.961	4560.56
334.851	4589.14
333.74	4588.46
332.629	4590.03
331.517	4701.83
330.406	4809.1
329.294	4830.88
328.182	4834.66
327.071	4842.93
325.958	5042.29
324.846	5068.51
323.734	5009.33
322.621	5320.92
321.508	5245.99
320.395	5357.52
319.282	5500.47
318.169	5488.43
317.056	5483.12
315.942	5688.84
314.828	5739.63
313.714	5889.14
312.6	5984.76
311.486	6318.18
310.372	6317.24
309.257	6448.64
308.142	6779.59
307.028	7110.45
305.912	7656.44
304.797	7928.79
303.682	8313.12
302.566	8444.1
301.45	8604.18
300.335	8522.24
299.219	8028.17
