3199.09	113.442
3198.38	124.077
3197.67	148.872
3196.97	138.219
3196.26	120.482
3195.56	88.5778
3194.85	102.736
3194.15	148.77
3193.44	113.333
3192.73	99.153
3192.03	109.762
3191.32	148.689
3190.62	120.351
3189.91	134.491
3189.2	145.089
3188.5	120.301
3187.79	106.134
3187.08	109.657
3186.38	99.0312
3185.67	162.672
3184.96	130.827
3184.26	137.88
3183.55	113.117
3182.84	84.8259
3182.13	106.018
3181.43	74.2024
3180.72	116.588
3180.01	123.637
3179.3	98.896
3178.59	98.8825
3177.89	130.648
3177.18	116.508
3176.47	105.902
3175.76	88.2398
3175.05	119.99
3174.35	116.445
3173.64	105.844
3172.93	105.83
3172.22	144.614
3171.51	116.381
3170.8	130.47
3170.09	126.927
3169.38	98.7071
3168.67	140.991
3167.96	116.302
3167.26	116.286
3166.55	130.363
3165.84	123.3
3165.13	102.149
3164.42	116.222
3163.71	130.292
3163	116.19
3162.29	130.256
3161.58	112.639
3160.87	116.143
3160.16	116.127
3159.44	98.5186
3158.73	130.167
3158.02	87.939
3157.31	130.132
3156.6	130.114
3155.89	116.032
3155.18	84.3753
3154.47	130.061
3153.76	98.4109
3153.05	101.912
3152.33	119.466
3151.62	98.3706
3150.91	129.972
3150.2	126.442
3149.49	136.96
3148.78	126.407
3148.06	119.368
3147.35	101.8
3146.64	126.356
3145.93	143.885
3145.21	140.357
3144.5	122.795
3143.79	143.826
3143.08	133.284
3142.36	105.21
3141.65	112.209
3140.94	112.193
3140.22	98.1558
3139.51	112.163
3138.8	98.129
3138.08	122.644
3137.37	154.161
3136.66	105.095
3135.94	136.605
3135.23	112.071
3134.52	140.069
3133.8	129.546
3133.09	119.026
3132.37	133.011
3131.66	108.494
3130.94	111.979
3130.23	125.959
3129.51	129.44
3128.8	115.431
3128.09	129.405
3127.37	115.399
3126.66	146.852
3125.94	129.352
3125.23	104.866
3124.51	122.326
3123.79	122.31
3123.08	108.317
3122.36	94.3275
3121.65	136.232
3120.93	108.272
3120.22	118.734
3119.5	125.701
3118.78	101.245
3118.07	122.176
3117.35	115.179
3116.63	104.694
3115.92	87.2329
3115.2	118.62
3114.49	143.023
3113.77	139.515
3113.05	115.084
3112.33	104.608
3111.62	122.026
3110.9	111.551
3110.18	115.022
3109.47	153.341
3108.75	132.413
3108.03	125.427
3107.31	107.991
3106.6	94.0442
3105.88	107.962
3105.16	121.876
3104.44	132.304
3103.72	128.805
3103.01	93.98
3102.29	142.691
3101.57	107.873
3100.85	125.255
3100.13	111.323
3099.41	121.743
3098.69	125.204
3097.97	107.8
3097.26	118.216
3096.54	146.011
3095.82	142.515
3095.1	145.971
3094.38	145.951
3093.66	128.559
3092.94	135.489
3092.22	118.103
3091.5	145.872
3090.78	118.07
3090.06	128.471
3089.34	107.623
3088.62	100.666
3087.9	128.418
3087.18	128.401
3086.46	107.564
3085.74	124.896
3085.02	121.41
3084.3	128.33
3083.58	138.717
3082.85	124.828
3082.13	107.476
3081.41	107.461
3080.69	114.379
3079.97	107.432
3079.25	97.022
3078.53	142.048
3077.8	96.9954
3077.08	131.619
3076.36	110.822
3075.64	121.195
3074.92	128.102
3074.2	138.47
3073.47	131.529
3072.75	134.972
3072.03	121.112
3071.31	131.475
3070.58	96.8629
3069.86	110.685
3069.14	114.129
3068.41	82.9913
3067.69	96.8099
3066.97	96.7967
3066.24	127.892
3065.52	93.3141
3064.8	148.591
3064.07	79.4681
3063.35	120.913
3062.63	110.534
3061.9	103.611
3061.18	117.41
3060.45	131.205
3059.73	155.353
3059.01	127.718
3058.28	103.541
3057.56	131.134
3056.83	96.6115
3056.11	120.748
3055.38	110.383
3054.66	127.613
3053.93	124.147
3053.21	120.682
3052.48	110.323
3051.76	117.202
3051.03	155.099
3050.31	120.616
3049.58	120.599
3048.86	124.028
3048.13	99.8978
3047.4	137.771
3046.68	127.421
3045.95	106.743
3045.23	110.172
3044.5	137.696
3043.77	106.7
3043.05	134.217
3042.32	130.757
3041.59	134.18
3040.87	89.4411
3040.14	103.187
3039.41	106.612
3038.69	116.913
3037.96	147.841
3037.23	137.508
3036.51	134.051
3035.78	130.596
3035.05	120.27
3034.32	106.51
3033.6	130.543
3032.87	109.916
3032.14	116.769
3031.41	157.961
3030.68	123.604
3029.95	133.887
3029.23	123.571
3028.5	151.01
3027.77	126.968
3027.04	102.933
3026.31	144.087
3025.58	109.765
3024.85	116.61
3024.13	126.882
3023.4	106.292
3022.67	102.849
3021.94	116.546
3021.21	140.522
3020.48	150.783
3019.75	102.792
3019.02	140.464
3018.29	126.743
3017.56	126.725
3016.83	140.406
3016.1	116.418
3015.37	150.639
3014.64	143.772
3013.91	126.639
3013.18	130.044
3012.45	112.917
3011.72	147.114
3010.99	109.465
3010.26	129.972
3009.52	95.756
3008.79	133.356
3008.06	105.987
3007.33	105.972
3006.6	143.555
3005.87	123.031
3005.14	119.597
3004.4	150.33
3003.67	116.148
3002.94	140.041
3002.21	129.777
3001.48	122.93
3000.74	163.884
3000.01	170.689
2999.28	143.359
2998.55	153.578
2997.81	133.083
2997.08	146.712
2996.35	129.635
2995.62	112.562
2994.88	136.42
2994.15	177.322
2993.42	126.154
2992.68	143.182
2991.95	173.841
2991.22	160.184
2990.48	136.308
2989.75	132.882
2989.01	149.898
2988.28	122.627
2987.55	163.48
2986.81	115.783
2986.08	146.411
2985.34	149.795
2984.61	139.563
2983.87	149.754
2983.14	166.749
2982.41	166.726
2981.67	149.693
2980.94	153.074
2980.2	146.251
2979.47	170.036
2978.73	204.015
2978	166.589
2977.26	190.362
2976.52	152.948
2975.79	183.513
2975.05	190.283
2974.32	146.09
2973.58	176.643
2972.84	203.791
2972.11	200.367
2971.37	217.318
2970.64	193.522
2969.9	207.074
2969.16	200.258
2968.43	203.624
2967.69	220.562
2966.95	179.819
2966.22	162.832
2965.48	179.769
2964.74	179.745
2964	196.675
2963.27	203.429
2962.53	216.961
2961.79	216.931
2961.05	176.232
2960.32	193.151
2959.58	216.842
2958.84	172.772
2958.1	230.332
2957.36	223.526
2956.63	220.11
2955.89	226.851
2955.15	206.508
2954.41	223.404
2953.67	209.836
2952.93	209.807
2952.19	233.463
2951.46	243.58
2950.72	270.607
2949.98	236.749
2949.24	250.243
2948.5	246.828
2947.76	246.794
2947.02	199.436
2946.28	273.765
2945.54	229.796
2944.8	273.69
2944.06	253.382
2943.32	243.213
2942.58	243.18
2941.84	199.245
2941.1	239.737
2940.36	249.832
2939.62	212.666
2938.88	243.013
2938.14	256.479
2937.4	209.204
2936.65	256.408
2935.91	259.747
2935.17	198.999
2934.43	249.558
2933.69	259.64
2932.95	252.861
2932.21	222.487
2931.46	229.198
2930.72	222.426
2929.98	239.244
2929.24	229.104
2928.5	225.704
2927.75	255.987
2927.01	229.01
2926.27	245.815
2925.53	198.645
2924.78	242.381
2924.04	185.127
2923.3	222.122
2922.56	235.551
2921.81	215.332
2921.07	259.036
2920.33	222
2919.58	242.149
2918.84	235.39
2918.1	225.271
2917.35	208.431
2916.61	218.487
2915.87	231.9
2915.12	191.543
2914.38	161.278
2913.63	221.726
2912.89	198.183
2912.14	211.59
2911.4	174.622
2910.66	218.247
2909.91	241.717
2909.17	201.404
2908.42	191.307
2907.68	221.483
2906.93	191.255
2906.19	224.777
2905.44	221.392
2904.7	191.176
2903.95	184.443
2903.2	191.124
2902.46	214.565
2901.71	204.48
2900.97	194.397
2900.22	207.775
2899.47	184.291
2898.73	211.068
2897.98	217.739
2897.24	154.071
2896.49	194.237
2895.74	167.423
2895	174.096
2894.25	153.986
2893.5	187.436
2892.76	190.757
2892.01	187.385
2891.26	194.05
2890.51	177.298
2889.77	173.928
2889.02	217.381
2888.27	200.632
2887.52	180.544
2886.78	197.234
2886.03	187.179
2885.28	183.811
2884.53	143.687
2883.78	160.373
2883.03	177.055
2882.29	146.968
2881.54	170.326
2880.79	143.589
2880.04	186.974
2879.29	210.317
2878.54	206.95
2877.79	216.934
2877.04	160.175
2876.29	160.153
2875.55	183.484
2874.8	170.116
2874.05	173.428
2873.3	193.412
2872.55	163.378
2871.8	190.026
2871.05	210
2870.3	186.641
2869.55	179.95
2868.8	159.934
2868.05	179.901
2867.3	186.538
2866.54	153.207
2865.79	193.147
2865.04	176.472
2864.29	126.51
2863.54	163.109
2862.79	199.698
2862.04	159.736
2861.29	183.006
2860.54	153.039
2859.78	166.324
2859.03	196.235
2858.28	162.952
2857.53	186.206
2856.78	149.609
2856.03	162.885
2855.27	169.51
2854.52	169.487
2853.77	159.495
2853.02	199.342
2852.26	172.739
2851.51	199.287
2850.76	169.371
2850	142.783
2849.25	195.885
2848.5	162.662
2847.75	136.086
2846.99	139.386
2846.24	149.322
2845.49	145.984
2844.73	139.329
2843.98	165.845
2843.22	132.658
2842.47	165.799
2841.72	152.514
2840.96	139.233
2840.21	162.416
2839.45	159.08
2838.7	132.548
2837.94	149.096
2837.19	162.327
2836.44	142.431
2835.68	145.723
2834.93	132.457
2834.17	168.86
2833.42	135.732
2832.66	158.883
2831.9	142.314
2831.15	132.367
2830.39	145.583
2829.64	145.563
2828.88	178.621
2828.13	142.216
2827.37	162.038
2826.61	119.032
2825.86	142.157
2825.1	125.61
2824.35	168.559
2823.59	138.794
2822.83	148.688
2822.08	102.415
2821.32	171.77
2820.56	138.718
2819.8	171.722
2819.05	151.887
2818.29	118.852
2817.53	168.351
2816.78	145.224
2816.02	165.004
2815.26	148.483
2814.5	125.369
2813.74	148.443
2812.99	155.019
2812.23	151.7
2811.47	125.3
2810.71	164.846
2809.95	158.23
2809.19	118.656
2808.44	145.004
2807.68	154.87
2806.92	154.849
2806.16	171.298
2805.4	115.281
2804.64	138.318
2803.88	141.592
2803.12	141.573
2802.36	174.473
2801.6	161.283
2800.84	174.425
2800.08	148.076
2799.33	121.735
2798.57	134.877
2797.81	124.99
2797.04	141.417
2796.28	128.244
2795.52	164.393
2794.76	174.233
2794	207.079
2793.24	164.326
2792.48	128.156
2791.72	177.423
2790.96	141.262
2790.2	151.097
2789.44	121.517
2788.68	108.366
2787.91	128.051
2787.15	131.316
2786.39	193.665
2785.63	170.664
2784.87	180.485
2784.11	164.055
2783.34	164.032
2782.58	193.532
2781.82	160.707
2781.06	157.406
2780.29	157.384
2779.53	170.476
2778.77	154.063
2778.01	157.32
2777.24	203.177
2776.48	190.042
2775.72	150.702
2774.95	183.439
2774.19	144.111
2773.43	180.113
2772.66	150.62
2771.9	166.968
2771.14	176.766
2770.37	193.106
2769.61	183.262
2768.85	170.149
2768.08	186.483
2767.32	196.271
2766.55	166.808
2765.79	192.947
2765.02	150.413
2764.26	199.433
2763.49	186.33
2762.73	173.23
2761.96	166.67
2761.2	192.788
2760.43	218.899
2759.67	209.068
2758.9	169.845
2758.14	212.277
2757.37	238.37
2756.61	225.278
2755.84	221.983
2755.07	205.632
2754.31	244.766
2753.54	241.47
2752.78	270.8
2752.01	215.306
2751.24	238.108
2750.48	257.643
2749.71	254.347
2748.94	296.697
2748.18	241.237
2747.41	257.502
2746.64	244.43
2745.88	276.982
2745.11	276.944
2744.34	289.937
2743.57	263.839
2742.81	289.857
2742.04	270.279
2741.27	312.569
2740.5	244.161
2739.73	318.993
2738.97	315.695
2738.2	338.43
2737.43	237.519
2736.66	331.831
2735.89	351.302
2735.12	374.02
2734.35	341.45
2733.59	347.905
2732.82	370.615
2732.05	386.816
2731.28	377.013
2730.51	396.459
2729.74	357.414
2728.97	376.857
2728.2	389.799
2727.43	405.984
2726.66	383.197
2725.89	474.059
2725.12	405.817
2724.35	467.437
2723.58	480.355
2722.81	451.082
2722.04	470.489
2721.27	483.401
2720.5	506.041
2719.73	473.538
2718.96	499.416
2718.19	457.195
2717.41	525.215
2716.64	431.136
2715.87	502.383
2715.1	547.684
2714.33	518.446
2713.56	489.216
2712.79	505.345
2712.01	531.187
2711.24	511.683
2710.47	582.85
2709.7	518.018
2708.93	547.081
2708.15	540.532
2707.38	559.875
2706.61	556.563
2705.84	520.897
2705.06	624.343
2704.29	562.802
2703.52	575.66
2702.74	630.552
2701.97	659.564
2701.2	614.215
2700.42	597.969
2699.65	594.655
2698.88	568.722
2698.1	529.873
2697.33	610.562
2696.55	604.018
2695.78	620.083
2695.01	645.831
2694.23	632.827
2693.46	606.914
2692.68	606.83
2691.91	613.201
2691.13	558.259
2690.36	622.712
2689.58	590.366
2688.81	612.864
2688.03	625.68
2687.26	677.189
2686.48	622.283
2685.71	596.407
2684.93	567.314
2684.16	589.797
2683.38	638.053
2682.6	596.078
2681.83	631.434
2681.05	579.808
2680.28	541.08
2679.5	579.649
2678.72	563.47
2677.95	540.856
2677.17	521.468
2676.39	540.707
2675.62	553.505
2674.84	530.906
2674.06	543.701
2673.29	456.775
2672.51	472.793
2671.73	514.534
2670.95	430.863
2670.18	482.243
2669.4	478.962
2668.62	466.04
2667.84	472.403
2667.06	436.993
2666.29	443.358
2665.51	414.386
2664.73	414.329
2663.95	414.272
2663.17	439.903
2662.39	427
2661.61	369.159
2660.84	385.157
2660.06	388.313
2659.28	388.259
2658.5	375.373
2657.72	372.113
2656.94	413.758
2656.16	372.011
2655.38	352.72
2654.6	333.435
2653.82	391.091
2653.04	326.932
2652.26	317.273
2651.48	336.455
2650.7	307.574
2649.92	317.142
2649.14	329.91
2648.36	345.878
2647.58	268.979
2646.8	284.95
2646.02	284.911
2645.24	268.868
2644.45	294.433
2643.67	300.793
2642.89	281.554
2642.11	297.511
2641.33	294.271
2640.55	265.447
2639.76	271.806
2638.98	290.952
2638.2	246.156
2637.42	239.73
2636.64	281.244
2635.85	262.032
2635.07	271.581
2634.29	249.181
2633.51	229.982
2632.72	229.95
2631.94	271.432
2631.16	239.465
2630.37	213.893
2629.59	271.319
2628.81	229.792
2628.02	201.04
2627.24	226.538
2626.46	200.985
2625.67	251.994
2624.89	223.255
2624.11	213.657
2623.32	213.628
2622.54	229.538
2621.75	197.631
2620.97	194.416
2620.18	191.203
2619.4	181.618
2618.62	207.079
2617.83	194.309
2617.05	200.652
2616.26	178.333
2615.48	149.652
2614.69	200.569
2613.9	168.71
2613.12	175.052
2612.33	197.304
2611.55	171.822
2610.76	200.431
2609.98	174.955
2609.19	184.473
2608.4	165.367
2607.62	162.164
2606.83	187.576
2606.04	165.298
2605.26	206.594
2604.47	168.43
2603.68	190.65
2602.9	162.03
2602.11	181.067
2601.32	196.923
2600.54	181.017
2599.75	184.168
2598.96	174.618
2598.17	168.245
2597.39	196.787
2596.6	168.198
2595.81	203.079
2595.02	155.461
2594.23	218.884
2593.45	199.823
2592.66	174.425
2591.87	145.863
2591.08	168.036
2590.29	161.673
2589.5	142.633
2588.72	174.305
2587.93	152.099
2587.14	174.256
2586.35	167.897
2585.56	190.045
2584.77	161.516
2583.98	155.161
2583.19	158.306
2582.4	167.781
2581.61	158.262
2580.82	148.746
2580.03	205.684
2579.24	158.196
2578.45	173.992
2577.66	145.501
2576.87	177.107
2576.08	139.136
2575.29	180.22
2574.5	167.549
2573.71	158.044
2572.92	142.22
2572.12	161.16
2571.33	173.776
2570.54	173.752
2569.75	157.935
2568.96	157.913
2568.17	179.996
2567.38	145.24
2566.58	179.946
2565.79	145.2
2565	167.272
2564.21	148.315
2563.41	164.071
2562.62	157.738
2561.83	151.408
2561.04	170.31
2560.24	138.752
2559.45	151.345
2558.66	135.561
2557.87	157.608
2557.07	138.676
2556.28	138.656
2555.49	154.392
2554.69	119.716
2553.9	138.599
2553.1	163.776
2552.31	151.157
2551.52	179.474
2550.72	107.04
2549.93	166.834
2549.13	157.368
2548.34	176.228
2547.54	110.127
2546.75	166.741
2545.96	122.68
2545.16	179.276
2544.37	154.093
2543.57	176.082
2542.78	144.619
2541.98	154.029
2541.18	182.295
2540.39	172.842
2539.59	153.966
2538.8	157.086
2538	169.629
2537.21	150.761
2536.41	122.476
2535.61	135.019
2534.82	144.419
2534.02	113.008
2533.22	163.211
2532.43	116.115
2531.63	178.855
2530.83	150.594
2530.04	185.08
2529.24	141.143
2528.44	169.348
2527.65	131.697
2526.85	178.707
2526.05	128.526
2525.25	156.717
2524.46	147.294
2523.66	147.274
2522.86	169.185
2522.06	150.366
2521.26	125.287
2520.47	128.402
2519.67	153.434
2518.87	153.413
2518.07	150.262
2517.27	150.241
2516.47	153.35
2515.67	150.199
2514.87	122.02
2514.07	193.954
2513.28	153.265
2512.48	178.263
2511.68	150.095
2510.88	131.315
2510.08	140.676
2509.28	146.908
2508.48	143.762
2507.68	137.492
2506.88	159.344
2506.08	174.942
2505.28	146.806
2504.48	153.032
2503.68	134.275
2502.88	121.767
2502.07	168.577
2501.27	118.612
2500.47	131.08
2499.67	131.061
2498.87	168.484
2498.07	177.82
2497.27	137.245
2496.47	155.939
2495.66	143.444
2494.86	159.014
2494.06	177.697
2493.26	137.151
2492.46	137.132
2491.65	130.88
2490.85	137.094
2490.05	118.383
2489.25	130.826
2488.44	149.495
2487.64	155.702
2486.84	193.044
2486.03	164.999
2485.23	143.186
2484.43	155.616
2483.62	140.035
2482.82	158.684
2482.02	146.218
2481.21	149.309
2480.41	164.839
2479.61	146.158
2478.8	158.575
2478	158.553
2477.19	174.073
2476.39	155.401
2475.58	152.272
2474.78	161.572
2473.98	161.55
2473.17	186.378
2472.37	127.34
2471.56	167.693
2470.76	127.305
2469.95	170.752
2469.15	164.52
2468.34	226.571
2467.53	195.507
2466.73	179.966
2465.92	158.224
2465.12	151.998
2464.31	167.485
2463.5	195.372
2462.7	151.935
2461.89	210.819
2461.09	195.291
2460.28	154.971
2459.47	164.247
2458.67	164.224
2457.86	167.299
2457.05	192.058
2456.24	161.058
2455.44	167.23
2454.63	176.496
2453.82	179.567
2453.01	185.734
2452.21	157.852
2451.4	160.925
2450.59	176.374
2449.78	176.349
2448.97	160.858
2448.17	167.022
2447.36	176.276
2446.55	173.16
2445.74	151.494
2444.93	154.564
2444.12	154.542
2443.31	151.431
2442.51	139.05
2441.7	163.747
2440.89	157.546
2440.08	123.548
2439.27	142.061
2438.46	132.778
2437.65	172.896
2436.84	157.437
2436.03	129.636
2435.22	141.963
2434.41	157.372
2433.6	188.203
2432.79	151.158
2431.98	151.137
2431.17	163.452
2430.36	114.092
2429.54	138.742
2428.73	157.219
2427.92	151.033
2427.11	135.602
2426.3	150.991
2425.49	132.484
2424.68	166.352
2423.87	110.886
2423.05	135.508
2422.24	138.569
2421.43	163.181
2420.62	135.452
2419.81	132.355
2418.99	141.57
2418.18	113.856
2417.37	153.838
2416.56	129.206
2415.74	153.795
2414.93	144.547
2414.12	116.852
2413.3	113.761
2412.49	156.784
2411.68	162.91
2410.86	159.814
2410.05	138.281
2409.24	122.9
2408.42	125.955
2407.61	122.865
2406.8	116.706
2405.98	144.327
2405.17	107.463
2404.35	144.287
2403.54	141.197
2402.72	113.556
2401.91	141.158
2401.09	113.525
2400.28	141.119
2399.46	162.571
2398.65	153.348
2397.83	141.06
2397.02	110.38
2396.2	134.89
2395.39	125.675
2394.57	113.399
2393.76	128.705
2392.94	150.135
2392.12	137.86
2391.31	156.22
2390.49	143.947
2389.67	134.74
2388.86	150.031
2388.04	125.519
2387.22	119.379
2386.41	134.666
2385.59	113.226
2384.77	134.628
2383.96	134.61
2383.14	134.591
2382.32	119.28
2381.5	152.902
2380.69	143.708
2379.87	162.031
2379.05	97.8164
2378.23	119.197
2377.42	97.7893
2376.6	125.275
2375.78	125.258
2374.96	140.514
2374.14	146.603
2373.32	112.99
2372.5	125.188
2371.69	134.33
2370.87	134.311
2370.05	112.928
2369.23	112.912
2368.41	149.511
2367.59	97.6266
2366.77	103.714
2365.95	161.649
2365.13	146.379
2364.31	106.72
2363.49	106.705
2362.67	152.415
2361.85	128.01
2361.03	127.993
2360.21	140.163
2359.39	140.144
2358.57	134.032
2357.75	137.059
2356.93	149.221
2356.11	112.662
2355.28	127.868
2354.46	158.291
2353.64	121.746
2352.82	124.772
2352	127.797
2351.18	133.864
2350.35	121.678
2349.53	136.869
2348.71	100.357
2347.89	142.912
2347.07	124.651
2346.24	142.872
2345.42	106.38
2344.6	100.287
2343.78	130.659
2342.95	133.679
2342.13	127.585
2341.31	88.0819
2340.48	148.807
2339.66	85.021
2338.84	118.406
2338.01	121.425
2337.19	124.443
2336.37	139.6
2335.54	175.993
2334.72	130.459
2333.89	75.8379
2333.07	106.158
2332.25	112.209
2331.42	215.29
2330.6	200.101
2329.77	194.01
2328.95	166.704
2328.12	148.498
2327.3	154.537
2326.47	145.427
2325.65	142.377
2324.82	127.213
2324	136.281
2323.17	112.038
2322.34	136.243
2321.52	124.115
2320.69	148.312
2319.87	130.133
2319.04	133.141
2318.21	105.893
2317.39	117.979
2316.56	127.036
2315.73	127.019
2314.91	117.93
2314.08	145.124
2313.25	120.92
2312.43	120.903
2311.6	178.307
2310.77	163.174
2309.94	111.789
2309.12	117.815
2308.29	129.88
2307.46	123.822
2306.63	123.805
2305.81	138.884
2304.98	126.789
2304.15	123.753
2303.32	120.718
2302.49	135.789
2301.66	117.668
2300.83	102.568
2300.01	108.586
2299.18	141.745
2298.35	102.525
2297.52	144.721
2296.69	111.54
2295.86	108.511
2295.03	126.578
2294.2	129.574
2293.37	126.543
2292.54	120.5
2291.71	150.604
2290.88	159.619
2290.05	132.495
2289.22	150.542
2288.39	132.458
2287.56	162.54
2286.73	126.402
2285.9	138.421
2285.07	114.332
2284.24	135.374
2283.41	150.395
2282.57	105.262
2281.74	153.36
2280.91	141.312
2280.08	153.318
2279.25	147.285
2278.42	138.248
2277.58	111.184
2276.75	102.155
2275.92	108.149
2275.09	135.168
2274.25	138.152
2273.42	123.118
2272.59	123.101
2271.76	135.092
2270.92	150.082
2270.09	129.052
2269.26	111.03
2268.42	138.018
2267.59	137.998
2266.76	113.983
2265.92	122.964
2265.09	131.943
2264.26	107.939
2263.42	122.913
2262.59	116.901
2261.75	125.876
2260.92	119.865
2260.09	122.845
2259.25	137.806
2258.42	104.838
2257.58	125.788
2256.75	125.771
2255.91	137.73
2255.08	134.717
2254.24	176.604
2253.41	122.708
2252.57	131.668
2251.74	110.706
2250.9	149.581
2250.06	146.569
2249.23	128.604
2248.39	152.509
2247.56	143.518
2246.72	98.6549
2245.88	131.522
2245.05	92.65
2244.21	140.45
2243.37	161.345
2242.54	104.561
2241.7	134.417
2240.86	128.425
2240.03	140.352
2239.19	131.375
2238.35	152.255
2237.51	146.263
2236.68	134.305
2235.84	137.27
2235	167.088
2234.16	128.282
2233.32	101.418
2232.49	128.246
2231.65	128.229
2230.81	131.192
2229.97	140.118
2229.13	125.194
2228.29	131.138
2227.45	119.199
2226.62	145.999
2225.78	154.916
2224.94	104.256
2224.1	110.198
2223.26	122.094
2222.42	83.3698
2221.58	157.785
2220.74	125.02
2219.9	125.002
2219.06	142.84
2218.22	136.869
2217.38	119
2216.54	124.933
2215.7	130.864
2214.86	145.714
2214.02	181.374
2213.17	109.999
2212.33	127.818
2211.49	106.996
2210.65	130.754
2209.81	118.851
2208.97	115.864
2208.13	133.67
2207.28	118.801
2206.44	118.785
2205.6	145.491
2204.76	130.627
2203.92	145.451
2203.07	139.494
2202.23	106.832
2201.39	124.62
2200.55	106.802
2199.7	136.45
2198.86	148.295
2198.02	118.619
2197.17	139.358
2196.33	130.445
2195.49	112.641
2194.64	127.445
2193.8	127.427
2192.96	124.446
2192.11	133.317
2191.27	124.412
2190.43	118.471
2189.58	139.184
2188.74	139.164
2187.89	136.184
2187.05	153.926
2186.2	145.025
2185.36	118.372
2184.51	147.944
2183.67	136.089
2182.82	130.154
2181.98	141.967
2181.13	91.674
2180.29	133.057
2179.44	97.5612
2178.6	127.108
2177.75	133.001
2176.9	138.893
2176.06	144.783
2175.21	127.037
2174.37	138.835
2173.52	127.001
2172.67	141.749
2171.83	135.824
2170.98	165.328
2170.13	153.497
2169.28	132.816
2168.44	165.258
2167.59	106.223
2166.74	112.108
2165.9	109.143
2165.05	132.723
2164.2	147.449
2163.35	112.046
2162.5	150.356
2161.66	132.649
2160.81	144.42
2159.96	117.877
2159.11	144.379
2158.26	106.06
2157.41	132.556
2156.56	147.264
2155.72	108.96
2154.87	97.1673
2154.02	117.762
2153.17	132.464
2152.32	129.502
2151.47	120.656
2150.62	129.466
2149.77	123.564
2148.92	114.722
2148.07	120.588
2147.22	123.512
2146.37	120.555
2145.52	120.538
2144.67	138.158
2143.82	111.687
2142.97	132.242
2142.12	135.162
2141.27	141.019
2140.41	102.812
2139.56	123.357
2138.71	126.276
2137.86	129.195
2137.01	126.241
2136.16	120.353
2135.31	117.401
2134.45	120.319
2133.6	111.5
2132.75	137.888
2131.9	143.736
2131.05	126.118
2130.19	126.1
2129.34	123.15
2128.49	123.133
2127.63	123.116
2126.78	155.339
2125.93	111.36
2125.08	140.645
2124.22	125.977
2123.37	120.101
2122.51	137.657
2121.66	163.994
2120.81	131.763
2119.95	146.383
2119.1	125.871
2118.25	137.561
2117.39	158.027
2116.54	134.597
2115.68	125.801
2114.83	146.26
2113.97	125.766
2113.12	128.673
2112.26	137.427
2111.41	146.178
2110.55	137.388
2109.7	128.601
2108.84	119.816
2107.99	119.799
2107.13	119.782
2106.27	148.977
2105.42	128.511
2104.56	116.812
2103.71	128.475
2102.85	93.4234
2101.99	108.006
2101.14	145.933
2100.28	105.057
2099.42	140.057
2098.57	148.789
2097.71	137.101
2096.85	110.832
2096	139.978
2095.14	122.464
2094.28	160.347
2093.42	157.41
2092.56	93.2668
2091.71	128.224
2090.85	119.465
2089.99	134.015
2089.13	133.996
2088.27	136.89
2087.42	136.871
2086.56	139.763
2085.7	116.453
2084.84	128.081
2083.98	148.436
2083.12	125.135
2082.26	122.207
2081.4	110.553
2080.54	186.169
2079.68	107.614
2078.82	136.679
2077.96	136.66
2077.1	139.548
2076.24	142.436
2075.38	136.603
2074.52	107.523
2073.66	142.376
2072.8	110.399
2071.94	145.241
2071.08	104.559
2070.22	101.64
2069.36	139.373
2068.5	124.837
2067.64	113.209
2066.78	130.607
2065.91	153.805
2065.05	116.063
2064.19	145.058
2063.33	121.832
2062.47	121.815
2061.61	115.998
2060.74	139.178
2059.88	110.167
2059.02	139.139
2058.16	153.611
2057.29	130.406
2056.43	115.9
2055.57	130.37
2054.7	139.042
2053.84	127.437
2052.98	115.836
2052.11	98.4465
2051.25	112.908
2050.39	153.418
2049.52	124.454
2048.66	127.33
2047.8	147.566
2046.93	133.08
2046.07	156.203
2045.2	138.828
2044.34	141.7
2043.47	130.114
2042.61	130.096
2041.74	130.078
2040.88	118.499
2040.01	138.711
2039.15	144.47
2038.28	135.783
2037.42	115.544
2036.55	135.745
2035.69	164.604
2034.82	147.257
2033.95	118.366
2033.09	127.009
2032.22	126.992
2031.36	129.86
2030.49	135.612
2029.62	118.283
2028.76	129.805
2027.89	141.323
2027.02	135.536
2026.16	141.284
2025.29	144.147
2024.42	109.536
2023.55	106.639
2022.69	155.613
2021.82	132.541
2020.95	135.403
2020.08	141.145
2019.22	126.725
2018.35	141.106
2017.48	115.172
2016.61	149.703
2015.74	143.925
2014.87	146.783
2014	141.007
2013.14	138.11
2012.27	126.583
2011.4	132.318
2010.53	166.813
2009.66	135.157
2008.79	140.888
2007.92	117.87
2007.05	126.477
2006.18	137.955
2005.31	135.062
2004.44	166.649
2003.57	94.8043
2002.7	169.475
2001.83	123.498
2000.96	137.839
2000.09	132.077
1999.22	126.317
1998.35	163.615
1997.48	157.852
1996.6	143.482
1995.73	175.023
1994.86	114.753
1993.99	137.685
1993.12	134.797
1992.25	149.117
1991.37	160.565
1990.5	117.54
1989.63	143.321
1988.76	126.105
1987.89	137.55
1987.01	140.395
1986.14	166.159
1985.27	174.729
1984.39	146.064
1983.52	117.408
1982.65	108.802
1981.77	157.454
1980.9	114.496
1980.03	137.376
1979.15	151.665
1978.28	125.893
1977.41	180.23
1976.53	128.718
1975.66	131.56
1974.78	134.401
1973.91	137.241
1973.04	140.081
1972.16	108.619
1971.29	142.899
1970.41	128.591
1969.54	154.288
1968.66	134.269
1967.79	131.394
1966.91	148.511
1966.04	134.212
1965.16	122.773
1964.28	122.756
1963.41	137.01
1962.53	139.845
1961.66	139.825
1960.78	151.218
1959.9	156.903
1959.03	142.619
1958.15	125.487
1957.27	134.024
1956.4	108.345
1955.52	145.39
1954.64	119.716
1953.77	125.399
1952.89	119.682
1952.01	162.403
1951.13	145.288
1950.26	142.419
1949.38	133.855
1948.5	130.988
1947.62	139.512
1946.74	136.645
1945.87	136.626
1944.99	147.991
1944.11	116.669
1943.23	125.188
1942.35	145.084
1941.47	142.219
1940.59	145.043
1939.71	125.117
1938.83	116.57
1937.95	125.082
1937.08	153.489
1936.2	125.047
1935.32	119.346
1934.44	156.265
1933.56	136.358
1932.68	147.7
1931.8	161.879
1930.91	161.856
1930.03	136.281
1929.15	122.068
1928.27	119.212
1927.39	124.872
1926.51	144.717
1925.63	124.837
1924.75	119.145
1923.87	147.493
1922.99	127.62
1922.1	141.78
1921.22	127.584
1920.34	136.071
1919.46	127.548
1918.58	161.538
1917.69	133.18
1916.81	147.327
1915.93	169.969
1915.05	124.626
1914.16	164.257
1913.28	135.918
1912.4	121.742
1911.51	138.71
1910.63	121.708
1909.75	118.861
1908.86	155.629
1907.98	135.803
1907.1	141.442
1906.21	115.966
1905.33	132.918
1904.45	135.727
1903.56	144.189
1902.68	161.13
1901.79	146.975
1900.91	124.346
1900.02	141.283
1899.14	115.835
1898.25	146.893
1897.37	129.925
1896.48	160.972
1895.6	127.065
1894.71	160.926
1893.83	121.383
1892.94	143.946
1892.05	155.214
1891.17	135.441
1890.28	135.422
1889.4	166.432
1888.51	121.281
1887.62	121.264
1886.74	81.7712
1885.85	169.158
1884.96	107.118
1884.08	107.103
1883.19	146.542
1882.3	146.521
1881.41	121.145
1880.53	149.297
1879.64	132.377
1878.75	126.726
1877.86	149.234
1876.98	157.659
1876.09	140.747
1875.2	177.316
1874.31	126.637
1873.42	154.756
1872.53	157.548
1871.64	140.648
1870.76	123.753
1869.87	163.106
1868.98	146.212
1868.09	140.569
1867.2	137.738
1866.31	151.771
1865.42	134.889
1864.53	134.87
1863.64	134.851
1862.75	157.304
1861.86	134.813
1860.97	134.794
1860.08	120.736
1859.19	151.601
1858.3	145.965
1857.41	143.138
1856.52	131.893
1855.63	115.039
1854.73	145.883
1853.84	148.668
1852.95	143.037
1852.06	137.409
1851.17	179.447
1850.28	137.37
1849.39	142.957
1848.49	142.937
1847.6	140.114
1846.71	145.698
1845.82	117.663
1844.92	179.27
1844.03	156.84
1843.14	179.22
1842.25	167.995
1841.35	165.172
1840.46	145.555
1839.57	187.515
1838.67	162.304
1837.78	151.089
1836.89	125.89
1835.99	165.032
1835.1	165.009
1834.2	153.8
1833.31	204.106
1832.42	134.188
1831.52	125.783
1830.63	117.381
1829.73	139.72
1828.84	128.524
1827.94	139.681
1827.05	139.661
1826.15	134.056
1825.26	122.867
1824.36	136.81
1823.47	136.79
1822.57	147.936
1821.67	156.288
1820.78	153.475
1819.88	167.404
1818.99	159.012
1818.09	139.464
1817.19	122.711
1816.3	142.213
1815.4	170.074
1814.5	147.749
1813.61	122.642
1812.71	128.198
1811.81	133.753
1810.92	144.879
1810.02	125.359
1809.12	144.838
1808.22	164.313
1807.32	153.151
1806.43	144.777
1805.53	183.73
1804.63	144.736
1803.73	166.98
1802.83	139.13
1801.94	127.982
1801.04	153
1800.14	139.071
1799.24	133.49
1798.34	141.813
1797.44	127.891
1796.54	169.571
1795.64	155.65
1794.74	130.616
1793.84	119.483
1792.94	116.688
1792.04	166.674
1791.14	138.875
1790.24	152.741
1789.34	116.622
1788.44	158.251
1787.54	124.917
1786.64	136.002
1785.74	124.882
1784.84	183.134
1783.94	133.17
1783.04	149.795
1782.13	135.906
1781.23	155.299
1780.33	166.368
1779.43	155.255
1778.53	138.601
1777.63	144.125
1776.72	149.647
1775.82	182.876
1774.92	124.671
1774.02	141.273
1773.11	155.102
1772.21	138.464
1771.31	130.138
1770.41	155.036
1769.5	141.174
1768.6	163.296
1767.7	154.97
1766.79	163.249
1765.89	149.394
1764.98	168.736
1764.08	165.946
1763.18	124.442
1762.27	143.779
1761.37	135.465
1760.46	124.389
1759.56	140.955
1758.65	154.752
1757.75	168.545
1756.85	157.471
1755.94	154.686
1755.03	160.188
1754.13	149.12
1753.22	146.337
1752.32	168.402
1751.41	121.453
1750.51	173.875
1749.6	160.052
1748.69	143.475
1747.79	126.902
1746.88	157.226
1745.98	154.446
1745.07	132.364
1744.16	173.703
1743.26	159.894
1742.35	126.795
1741.44	132.289
1740.53	148.804
1739.63	148.783
1738.72	170.801
1737.81	162.513
1736.9	195.539
1736	159.713
1735.09	162.444
1734.18	165.174
1733.27	129.368
1732.36	137.606
1731.46	162.352
1730.55	178.837
1729.64	176.061
1728.73	134.778
1727.82	156.76
1726.91	178.736
1726	156.716
1725.09	153.945
1724.18	195.152
1723.27	200.621
1722.36	162.123
1721.45	156.605
1720.54	156.583
1719.63	142.827
1718.72	159.285
1717.81	156.516
1716.9	142.767
1715.99	140.001
1715.08	159.195
1714.17	142.706
1713.26	164.638
1712.35	183.819
1711.44	156.362
1710.52	170.053
1709.61	189.226
1708.7	167.263
1707.79	167.24
1706.88	175.44
1705.96	145.265
1705.05	178.131
1704.14	164.405
1703.23	164.382
1702.31	145.183
1701.4	125.99
1700.49	180.743
1699.58	167.027
1698.66	180.692
1697.75	147.818
1696.84	153.271
1695.92	191.562
1695.01	161.436
1694.09	155.942
1693.18	144.978
1692.27	158.633
1691.35	180.487
1690.44	177.728
1689.52	164.033
1688.61	158.543
1687.69	166.72
1686.78	163.963
1685.86	150.279
1684.95	163.917
1684.03	174.82
1683.12	152.946
1682.2	177.501
1681.29	172.015
1680.37	163.801
1679.46	180.156
1678.54	177.401
1677.62	158.274
1676.71	182.808
1675.79	160.957
1674.88	169.117
1673.96	163.639
1673.04	163.616
1672.12	177.225
1671.21	136.308
1670.29	196.255
1669.37	168.974
1668.46	177.125
1667.54	166.201
1666.62	177.074
1665.7	160.706
1664.78	152.513
1663.87	166.107
1662.95	185.142
1662.03	171.505
1661.11	174.202
1660.19	182.342
1659.27	179.595
1658.36	187.732
1657.44	187.705
1656.52	149.599
1655.6	182.213
1654.68	193.064
1653.76	198.474
1652.84	187.572
1651.92	201.136
1651	211.978
1650.08	173.906
1649.16	195.617
1648.24	201.022
1647.32	211.858
1646.4	203.681
1645.48	181.929
1644.56	209.053
1643.64	249.742
1642.71	227.993
1641.79	214.392
1640.87	203.508
1639.95	200.766
1639.03	263.128
1638.11	216.982
1637.19	260.342
1636.26	252.17
1635.34	295.513
1634.42	330.71
1633.5	338.795
1632.57	317.067
1631.65	390.181
1630.73	409.09
1629.81	403.614
1628.88	400.848
1627.96	514.53
1627.04	563.195
1626.11	657.87
1625.19	676.725
1624.27	649.564
1623.34	641.353
1622.42	654.791
1621.49	649.287
1620.57	646.49
1619.65	622.057
1618.72	597.631
1617.8	584.027
1616.87	570.427
1615.95	546.018
1615.02	570.265
1614.1	489.115
1613.17	502.555
1612.25	551.112
1611.32	542.93
1610.39	491.538
1609.47	531.974
1608.54	572.399
1607.62	518.325
1606.69	564.139
1605.76	572.155
1604.84	582.868
1603.91	639.445
1602.98	606.982
1602.06	658.144
1601.13	631.082
1600.2	639.082
1599.28	727.964
1598.35	708.991
1597.42	805.924
1596.49	873.185
1595.57	886.534
1594.64	926.822
1593.71	991.344
1592.78	1042.38
1591.85	1136.49
1590.93	1184.8
1590	1343.48
1589.07	1402.51
1588.14	1474.98
1587.21	1525.91
1586.28	1646.78
1585.35	1673.45
1584.42	1753.91
1583.49	1788.63
1582.56	1807.2
1581.63	1841.9
1580.7	1777.11
1579.77	1715.03
1578.84	1593.84
1577.91	1577.49
1576.98	1402.61
1576.05	1370.17
1575.12	1267.9
1574.19	1095.82
1573.26	1090.3
1572.33	988.11
1571.4	902.059
1570.47	891.194
1569.54	746.134
1568.6	743.345
1567.67	716.407
1566.74	627.773
1565.81	627.684
1564.88	552.498
1563.94	557.783
1563.01	608.648
1562.08	493.283
1561.15	517.338
1560.21	466.342
1559.28	410.001
1558.35	476.926
1557.41	436.674
1556.48	391.076
1555.55	369.594
1554.61	366.864
1553.68	353.424
1552.75	364.083
1551.81	358.677
1550.88	345.245
1549.94	355.899
1549.01	302.338
1548.07	312.995
1547.14	315.626
1546.21	283.488
1545.27	304.84
1544.34	288.755
1543.4	312.773
1542.46	291.345
1541.53	245.871
1540.59	288.59
1539.66	256.488
1538.72	261.794
1537.79	307.164
1536.85	275.073
1535.91	259.013
1534.98	234.947
1534.04	242.922
1533.1	282.924
1532.17	272.209
1531.23	258.828
1530.29	250.788
1529.36	253.42
1528.42	237.38
1527.48	253.347
1526.54	245.312
1525.61	271.938
1524.67	258.571
1523.73	247.873
1522.79	263.827
1521.85	245.138
1520.92	255.759
1519.98	221.094
1519.04	247.696
1518.1	210.379
1517.16	234.313
1516.22	199.67
1515.28	234.246
1514.34	239.535
1513.4	215.551
1512.46	207.538
1511.52	194.207
1510.58	231.419
1509.64	215.429
1508.7	212.739
1507.76	199.414
1506.82	212.678
1505.88	196.699
1504.94	249.826
1504	223.217
1503.06	207.243
1502.12	220.496
1501.18	212.496
1500.24	244.336
1499.3	188.537
1498.35	233.646
1497.41	252.196
1496.47	214.999
1495.53	225.584
1494.59	185.749
1493.64	198.988
1492.7	217.53
1491.76	236.066
1490.82	212.164
1489.87	188.268
1488.93	209.452
1487.99	193.517
1487.04	217.344
1486.1	212.012
1485.16	222.581
1484.21	217.251
1483.27	233.114
1482.33	243.675
1481.38	203.917
1480.44	235.662
1479.49	225.039
1478.55	243.537
1477.61	232.915
1476.66	235.528
1475.72	222.264
1474.77	235.461
1473.83	238.072
1472.88	211.59
1471.94	230.071
1470.99	222.106
1470.04	224.718
1469.1	214.113
1468.15	248.441
1467.21	206.124
1466.26	229.874
1465.31	224.558
1464.37	216.601
1463.42	258.828
1462.47	216.54
1461.53	242.912
1460.58	250.798
1459.63	253.401
1458.69	248.087
1457.74	226.941
1456.79	234.824
1455.84	242.704
1454.9	237.394
1453.95	232.086
1453	258.422
1452.05	250.476
1451.1	231.987
1450.15	258.312
1449.21	266.181
1448.26	289.859
1447.31	216.046
1446.36	239.724
1445.41	258.128
1444.46	242.289
1443.51	263.32
1442.56	244.853
1441.61	260.613
1440.66	268.472
1439.71	242.116
1438.76	236.819
1437.81	242.047
1436.86	236.752
1435.91	291.952
1434.96	236.684
1434.01	252.427
1433.06	236.616
1432.11	241.84
1431.16	273.345
1430.21	252.283
1429.25	246.992
1428.3	265.347
1427.35	225.907
1426.4	265.271
1425.45	257.355
1424.49	244.19
1423.54	283.535
1422.59	262.495
1421.64	244.085
1420.68	251.923
1419.73	296.492
1418.78	291.203
1417.83	280.669
1416.87	254.402
1415.92	256.988
1414.97	238.597
1414.01	272.644
1413.06	262.12
1412.1	277.807
1411.15	275.147
1410.2	264.628
1409.24	269.829
1408.29	282.887
1407.33	303.798
1406.38	280.188
1405.42	350.839
1404.47	282.726
1403.51	314.095
1402.56	321.901
1401.6	300.921
1400.65	327.042
1399.69	292.988
1398.74	360.951
1397.78	345.208
1396.82	303.321
1395.87	386.941
1394.91	365.973
1393.95	360.693
1393	316.215
1392.04	381.494
1391.08	376.214
1390.13	373.548
1389.17	399.613
1388.21	376.053
1387.26	415.165
1386.3	407.274
1385.34	448.981
1384.38	467.187
1383.42	467.12
1382.47	464.444
1381.51	495.684
1380.55	526.915
1379.59	568.57
1378.63	573.704
1377.67	578.836
1376.71	617.859
1375.76	682.936
1374.8	729.751
1373.84	740.07
1372.88	781.652
1371.92	857.089
1370.96	890.828
1370	987.063
1369.04	1093.69
1368.08	1085.72
1367.12	1210.52
1366.16	1202.54
1365.2	1199.76
1364.24	1272.45
1363.27	1345.12
1362.31	1409.96
1361.35	1550.22
1360.39	1557.8
1359.43	1664.19
1358.47	1650.95
1357.51	1694.91
1356.54	1777.84
1355.58	1829.56
1354.62	1857.88
1353.66	1901.78
1352.7	1974.24
1351.73	2012.92
1350.77	2100.93
1349.81	2157.75
1348.85	2102.92
1347.88	2120.79
1346.92	2146.44
1345.96	2104.61
1344.99	2148.42
1344.03	1976.89
1343.06	1963.64
1342.1	1999.67
1341.14	1929.36
1340.17	1853.89
1339.21	1825.11
1338.24	1830.03
1337.28	1601.7
1336.31	1565.19
1335.35	1497.6
1334.38	1458.52
1333.42	1333.98
1332.45	1315.66
1331.49	1217.07
1330.52	1224.67
1329.56	1139.06
1328.59	1110.43
1327.63	1081.8
1326.66	1022.13
1325.69	1011.63
1324.73	926.118
1323.76	910.466
1322.79	817.233
1321.83	804.187
1320.86	840.268
1319.89	723.819
1318.93	757.316
1317.96	700.353
1316.99	614.982
1316.02	661.398
1315.05	635.471
1314.09	586.306
1313.12	565.562
1312.15	568.063
1311.18	539.583
1310.21	554.994
1309.25	503.294
1308.28	477.416
1307.31	487.668
1306.34	482.439
1305.37	479.79
1304.4	456.509
1303.43	440.971
1302.46	417.702
1301.49	435.688
1300.52	391.805
1299.55	355.667
1298.58	371.078
1297.61	422.555
1296.64	399.309
1295.67	404.404
1294.7	376.016
1293.73	337.335
1292.76	370.758
1291.79	329.516
1290.82	347.486
1289.84	326.848
1288.87	378.265
1287.9	344.764
1286.93	316.417
1285.96	313.799
1284.98	303.467
1284.01	321.423
1283.04	303.38
1282.07	334.185
1281.09	321.285
1280.12	316.099
1279.15	316.054
1278.18	264.625
1277.2	326.238
1276.23	305.644
1275.26	295.328
1274.28	282.447
1273.31	272.137
1272.33	279.799
1271.36	292.592
1270.39	256.623
1269.41	271.981
1268.44	312.99
1267.46	279.598
1266.49	271.864
1265.51	230.795
1264.54	279.478
1263.56	235.856
1262.59	253.765
1261.61	235.788
1260.64	253.692
1259.66	261.342
1258.69	286.922
1257.71	248.46
1256.73	258.668
1255.76	240.706
1254.78	256.034
1253.8	240.637
1252.83	284.116
1251.85	232.89
1250.87	255.887
1249.9	222.589
1248.92	268.604
1247.94	266.007
1246.96	232.723
1245.99	250.589
1245.01	255.666
1244.03	237.735
1243.05	227.477
1242.07	217.223
1241.1	219.746
1240.12	258.037
1239.14	229.901
1238.16	260.517
1237.18	252.819
1236.2	219.589
1235.22	211.898
1234.24	224.631
1233.26	237.36
1232.28	206.703
1231.3	206.673
1230.32	265.32
1229.34	229.571
1228.36	219.336
1227.38	214.205
1226.4	244.77
1225.42	221.791
1224.44	229.406
1223.46	226.824
1222.48	216.599
1221.5	208.924
1220.52	211.442
1219.53	208.864
1218.55	231.755
1217.57	224.082
1216.59	226.596
1215.61	221.472
1214.63	203.623
1213.64	203.594
1212.66	211.198
1211.68	216.256
1210.7	236.576
1209.71	216.194
1208.73	241.594
1207.75	211.047
1206.76	205.931
1205.78	205.902
1204.8	210.956
1203.81	228.714
1202.83	223.599
1201.84	208.324
1200.86	243.856
1199.88	223.503
1198.89	213.313
1197.91	205.665
1196.92	225.945
1195.94	230.989
1194.95	220.804
1193.97	208.084
1192.98	238.501
1192	169.971
1191.01	210.531
1190.02	205.428
1189.04	190.184
1188.05	185.086
1187.07	218.015
1186.08	215.449
1185.09	223.021
1184.11	238.192
1183.12	222.956
1182.13	230.524
1181.15	227.958
1180.16	240.588
1179.17	192.442
1178.18	205.074
1177.2	192.387
1176.21	194.89
1175.22	204.985
1174.23	220.137
1173.24	225.166
1172.26	225.133
1171.27	177.045
1170.28	212.424
1169.29	202.279
1168.3	212.363
1167.31	184.527
1166.32	199.665
1165.33	227.433
1164.34	202.134
1163.36	212.21
1162.37	222.283
1161.38	224.777
1160.39	204.542
1159.4	196.938
1158.41	232.253
1157.41	242.316
1156.42	219.567
1155.43	234.676
1154.44	214.458
1153.45	196.768
1152.46	211.874
1151.47	229.497
1150.48	211.813
1149.49	231.952
1148.49	219.314
1147.5	214.241
1146.51	186.489
1145.52	244.417
1144.53	191.474
1143.53	226.713
1142.54	229.199
1141.55	188.873
1140.56	241.723
1139.56	224.065
1138.57	193.826
1137.58	226.517
1136.58	244.1
1135.59	203.807
1134.6	228.935
1133.6	226.386
1132.61	231.384
1131.61	218.777
1130.62	213.717
1129.62	188.546
1128.63	231.25
1127.64	256.349
1126.64	228.671
1125.65	221.1
1124.65	236.141
1123.65	198.43
1122.66	231.05
1121.66	215.951
1120.67	228.473
1119.67	230.95
1118.68	235.937
1117.68	240.922
1116.68	218.304
1115.69	240.852
1114.69	245.835
1113.69	220.718
1112.7	243.256
1111.7	228.176
1110.7	210.594
1109.71	203.043
1108.71	223.065
1107.71	260.622
1106.71	210.472
1105.71	235.494
1104.72	260.509
1103.72	210.381
1102.72	205.342
1101.72	232.855
1100.72	227.814
1099.72	237.794
1098.73	252.776
1097.73	205.194
1096.73	220.177
1095.73	205.135
1094.73	212.609
1093.73	237.588
1092.73	180.04
1091.73	227.518
1090.73	239.984
1089.73	219.954
1088.73	239.915
1087.73	234.883
1086.73	237.347
1085.73	259.795
1084.73	214.8
1083.72	247.234
1082.72	214.738
1081.72	242.169
1080.72	222.164
1079.72	224.628
1078.72	207.127
1077.71	204.602
1076.71	271.932
1075.71	217.015
1074.71	241.924
1073.71	194.509
1072.7	211.934
1071.7	199.439
1070.7	249.262
1069.69	239.257
1068.69	234.239
1067.69	221.747
1066.68	224.206
1065.68	224.174
1064.68	211.689
1063.67	216.639
1062.67	231.546
1061.66	234.002
1060.66	231.479
1059.65	204.07
1058.65	258.783
1057.65	236.354
1056.64	256.221
1055.64	231.312
1054.63	256.147
1053.62	228.758
1052.62	241.156
1051.61	223.72
1050.61	228.659
1049.6	265.902
1048.6	226.108
1047.59	236.013
1046.58	238.463
1045.58	235.944
1044.57	258.26
1043.56	285.534
1042.56	253.22
1041.55	260.63
1040.54	312.711
1039.53	352.369
1038.53	305.177
1037.52	349.786
1036.51	377.02
1035.5	386.885
1034.49	374.431
1033.49	438.839
1032.48	433.818
1031.47	448.626
1030.46	448.561
1029.45	455.93
1028.44	493.027
1027.43	557.362
1026.42	549.851
1025.41	567.106
1024.4	515.026
1023.39	512.476
1022.38	542.106
1021.37	598.953
1020.36	586.493
1019.35	621.048
1018.34	687.754
1017.33	675.287
1016.32	667.769
1015.31	759.169
1014.3	697.246
1013.29	726.811
1012.28	739.064
1011.26	780.972
1010.25	788.272
1009.24	874.633
1008.23	874.506
1007.22	894.139
1006.2	874.252
1005.19	943.266
1004.18	950.536
1003.17	994.832
1002.15	1034.18
1001.14	1034.03
1000.13	1107.9
999.115	1189.16
998.101	1181.59
997.088	1198.68
996.074	1237.96
995.06	1353.67
994.046	1521.12
993.032	1552.94
992.017	1725.24
991.003	1766.89
989.988	1944.03
988.973	2116.2
987.958	2327.73
986.943	2352.02
985.928	2450.18
984.913	2600.01
983.897	2656.26
982.882	2663.26
981.866	2741.62
980.85	2684.63
979.834	2701.46
978.817	2705.99
977.801	2737.57
976.784	2751.93
975.768	2739.24
974.751	2596.24
973.734	2706.49
972.717	2740.5
971.699	2656.55
970.682	2697.94
969.664	2650.87
968.647	2645.57
967.629	2677.11
966.611	2725.84
965.593	2632.14
964.574	2661.22
963.556	2594.56
962.537	2572.09
961.518	2657.61
960.499	2561.53
959.48	2600.41
958.461	2519.09
957.442	2599.66
956.422	2633.61
955.403	2562.13
954.383	2598.53
953.363	2571.19
952.343	2536.5
951.322	2523.88
950.302	2545.57
949.282	2581.94
948.261	2640.35
947.24	2524.87
946.219	2573.47
945.198	2631.86
944.177	2643.71
943.155	2760.81
942.134	2858.3
941.112	2789.37
940.09	2654.41
939.068	2514.6
938.046	2423.74
937.023	2176.4
936.001	2046.5
934.978	1916.63
933.955	1779.47
932.933	1637.46
931.909	1495.49
930.886	1312.03
929.863	1165.27
928.839	1094.26
927.816	979.322
926.792	905.924
925.768	803.25
924.744	764.075
923.72	712.708
922.695	675.998
921.671	653.939
920.646	622.127
919.621	575.689
918.596	575.605
917.571	553.574
916.546	602.259
915.52	546.099
914.494	546.02
913.469	604.434
912.443	570.23
911.417	494.615
910.391	572.5
909.364	513.957
908.338	562.592
907.311	572.251
906.284	528.342
905.257	545.306
904.23	489.243
903.203	532.979
902.176	528.034
901.148	518.226
900.12	532.746
899.092	471.862
898.064	530.159
897.036	556.829
896.008	539.73
894.98	534.79
893.951	488.532
892.922	510.333
891.893	524.837
890.864	495.607
889.835	531.972
888.806	512.464
887.776	497.819
886.747	526.883
885.717	495.247
884.687	504.884
883.657	521.799
882.627	529.003
881.596	465.843
880.566	514.294
879.535	472.984
878.504	543.247
877.473	540.743
876.442	492.174
875.411	523.616
874.379	475.064
873.348	518.617
872.316	506.426
871.284	467.588
870.252	489.322
869.22	450.498
868.188	479.493
867.155	486.687
866.122	489.037
865.09	554.322
864.057	493.735
863.024	525.122
861.99	488.752
860.957	491.1
859.923	527.311
858.89	507.887
857.856	495.722
856.822	498.067
855.788	466.568
854.753	529.345
853.719	464.015
852.684	473.613
851.65	512.201
850.615	507.295
849.58	478.237
848.544	487.827
847.509	516.732
846.474	475.614
845.438	511.753
844.402	516.506
843.366	485.059
842.33	538.071
841.294	470.442
840.257	521.029
839.221	496.835
838.184	547.403
837.147	549.735
836.11	472.51
835.073	501.366
834.036	551.904
832.998	551.824
831.961	503.556
830.923	532.391
829.885	578.078
828.847	537.052
827.809	515.302
826.77	560.972
825.732	556.075
824.693	539.146
823.654	560.726
822.615	565.457
821.576	536.504
820.537	543.642
819.497	567.615
818.458	572.341
817.418	526.573
816.378	531.305
815.338	511.997
814.298	531.15
813.258	555.103
812.217	497.357
811.176	547.734
810.136	571.674
809.095	573.992
808.054	499.468
807.012	535.409
805.971	564.138
804.929	520.852
803.888	499.177
802.846	513.501
801.804	477.438
800.762	506.155
799.719	501.284
798.677	506.007
797.634	491.546
796.591	453.115
795.548	484.211
794.505	498.521
793.462	510.43
792.419	472.019
791.375	476.742
790.331	459.905
789.288	500.552
788.244	426.245
787.199	440.549
786.155	452.454
785.111	423.665
784.066	449.929
783.021	466.613
781.976	461.76
780.931	440.163
779.886	442.49
778.841	454.383
777.795	449.535
776.75	444.687
775.704	401.594
774.658	384.805
773.612	437.323
772.565	461.153
771.519	441.974
770.472	398.912
769.426	398.854
768.379	415.512
767.332	413.063
766.284	401.067
765.237	401.008
764.189	384.243
763.142	412.822
762.094	412.762
761.046	405.545
759.998	412.641
758.95	398.271
757.901	371.984
756.853	355.24
755.804	364.723
754.755	390.888
753.706	357.467
752.657	374.094
751.607	350.216
750.558	371.603
749.508	388.221
748.458	378.638
747.408	361.916
746.358	404.715
745.308	357.049
744.258	371.277
743.207	368.843
742.156	349.755
741.105	356.84
740.054	401.981
739.003	361.493
737.952	301.992
736.9	380.407
735.849	323.299
734.797	394.557
733.745	373.111
732.693	375.432
731.64	346.868
730.588	334.94
729.535	349.141
728.483	389.461
727.43	368.034
726.377	360.858
725.324	365.553
724.27	310.912
723.217	336.97
722.163	351.156
721.109	403.296
720.055	370.029
719.001	422.151
717.947	331.98
716.892	372.238
715.838	355.589
714.783	346.056
713.728	327.046
712.673	388.607
711.618	353.012
710.563	357.698
709.507	390.804
708.451	362.329
707.396	362.276
706.34	385.898
705.283	388.208
704.227	378.684
703.171	392.828
702.114	364.377
701.057	385.615
700	387.924
698.943	385.502
697.886	411.457
696.829	401.94
695.771	423.157
694.714	418.368
693.656	378.13
692.598	439.512
691.54	491.425
690.481	455.919
689.423	429.871
688.364	384.938
687.305	486.414
686.247	446.208
685.187	462.666
684.128	523.964
683.069	512.087
682.009	542.686
680.95	483.627
679.89	521.298
678.83	566.032
677.77	499.922
676.709	554.077
675.649	556.353
674.588	586.914
673.527	572.687
672.466	582.029
671.405	584.3
670.344	591.281
669.283	617.103
668.221	558.137
667.159	588.666
666.097	593.288
665.035	548.476
663.973	538.981
662.911	524.782
661.848	536.47
660.786	510.513
659.723	545.721
658.66	517.418
657.597	503.233
656.534	493.754
655.47	531.296
654.407	498.311
653.343	512.339
652.279	507.564
651.215	491.043
650.151	507.415
649.086	551.967
648.022	504.917
646.957	502.495
645.892	481.291
644.827	514.085
643.762	474.109
642.697	511.587
641.631	478.662
640.566	471.554
639.5	572.35
638.434	539.431
637.368	515.901
636.302	506.447
635.235	496.995
634.169	499.266
633.102	532.004
632.035	536.612
630.968	473.274
629.901	489.603
628.833	503.584
627.766	508.194
626.698	573.683
625.63	545.504
624.562	580.537
623.494	620.241
622.426	568.666
621.358	584.961
620.289	612.949
619.22	650.286
618.151	624.463
617.082	596.31
616.013	654.675
614.944	607.823
613.874	546.961
612.804	593.622
611.734	556.147
610.664	565.411
609.594	511.598
608.524	527.873
607.453	511.448
606.383	532.388
605.312	534.644
604.241	483.21
603.17	452.797
602.099	452.73
601.027	468.997
599.956	468.928
598.884	473.524
597.812	412.815
596.74	433.742
595.668	424.352
594.595	421.958
593.523	440.543
592.45	400.859
591.377	377.497
590.304	428.699
589.231	393.693
588.158	458.853
587.084	400.564
586.011	405.162
584.937	465.635
583.863	460.911
582.789	393.346
581.714	390.961
580.64	432.786
579.565	444.354
578.491	393.114
577.416	390.731
576.341	451.134
575.265	451.068
574.19	395.208
573.114	467.206
572.039	429.952
570.963	471.716
569.887	478.617
568.811	446.024
567.734	494.735
566.658	450.537
565.581	487.623
564.504	485.23
563.427	489.801
562.35	526.864
561.273	512.863
560.196	515.108
559.118	573.031
558.04	512.636
556.962	575.181
555.884	602.924
554.806	632.977
553.728	598.11
552.649	688.42
551.57	651.238
550.491	690.535
549.412	715.919
548.333	738.979
547.254	759.716
546.174	792.026
545.095	838.22
544.015	865.878
542.935	935.196
541.855	1009.12
540.774	1020.54
539.694	1099.06
538.613	1198.38
537.533	1279.16
536.452	1325.23
535.371	1507.72
534.289	1650.85
533.208	1928.02
532.126	1999.39
531.045	2454.38
529.963	2874.57
528.881	3608.86
527.798	4185.84
526.716	5522.56
525.633	7318.45
524.551	10633.2
523.468	16391.8
522.385	28469.1
521.302	51736.7
520.218	79326.7
519.135	77563.7
518.051	50394.2
516.967	27827.6
515.883	16130.4
514.799	10496.8
513.715	7242.03
512.631	5447.43
511.546	4185.81
510.461	3415.45
509.376	2866.53
508.291	2421.44
507.206	2040.99
506.12	1814.97
505.035	1586.71
503.949	1441.42
502.863	1328.39
501.777	1180.88
500.691	1208.32
499.605	1097.68
498.518	993.982
497.431	963.928
496.344	961.486
495.257	926.846
494.17	871.52
493.083	843.801
491.995	793.102
490.908	820.567
489.82	806.657
488.732	710.029
487.644	730.602
486.555	709.819
485.467	691.34
484.378	672.866
483.29	716.393
482.201	638.231
481.112	635.841
480.022	635.747
478.933	637.948
477.843	630.97
476.753	568.936
475.664	568.852
474.574	559.595
473.483	541.167
472.393	559.429
471.302	543.3
470.212	593.645
469.121	586.682
468.03	513.271
466.938	522.359
465.847	481.049
464.756	487.849
463.664	515.257
462.572	476.257
461.48	467.029
460.388	450.937
459.296	402.808
458.203	446.227
457.11	505.649
456.018	455.245
454.925	507.786
453.831	484.841
452.738	560.229
451.645	580.723
450.551	571.493
449.457	610.265
448.363	633.027
447.269	584.95
446.175	669.394
445.08	625.894
443.986	698.887
442.891	659.963
441.796	767.179
440.701	721.407
439.606	709.887
438.51	789.661
437.415	821.491
436.319	812.243
435.223	855.467
434.127	818.845
433.031	855.213
431.935	841.405
430.838	829.881
429.741	834.318
428.645	834.194
427.547	797.609
426.45	758.755
425.353	852.05
424.255	845.09
423.158	799.414
422.06	831.176
420.962	817.392
419.864	751.252
418.765	826.255
417.667	771.512
416.568	780.5
415.469	860.016
414.37	752.971
413.271	727.84
412.172	700.442
411.073	784.47
409.973	747.978
408.873	784.238
407.773	781.849
406.673	788.55
405.573	742.991
404.472	779.229
403.372	760.942
402.271	801.71
401.17	785.696
400.069	855.963
398.968	783.193
397.866	764.918
396.765	796.577
395.663	805.536
394.561	816.76
393.459	753.123
392.357	821.054
391.254	802.791
390.152	811.741
389.049	850.162
387.946	845.502
386.843	809.114
385.74	799.93
384.636	845.126
383.533	874.451
382.429	801.839
381.325	880.986
380.221	842.361
379.117	846.764
378.013	864.748
376.908	860.093
375.803	819.23
374.699	853.05
373.594	898.171
372.488	841.487
371.383	879.811
370.277	886.465
369.172	931.554
368.066	804.816
366.96	867.987
365.854	924.36
364.747	879.028
363.641	865.342
362.534	890.063
361.427	871.861
360.32	957.55
359.213	916.763
358.106	939.204
356.998	914.234
355.891	911.841
354.783	875.598
353.675	927.365
352.567	938.507
351.459	893.254
350.35	917.93
349.241	940.344
348.133	978.534
347.024	1005.44
345.915	955.704
344.805	1018.67
343.696	984.714
342.586	1009.35
341.476	1024.97
340.366	1056.35
339.256	1042.68
338.146	983.983
337.036	983.836
335.925	1114.25
334.814	1026.31
333.703	1066.66
332.592	1118.25
331.481	1082.09
330.369	1113.42
329.258	1140.24
328.146	1146.82
327.034	1160.14
325.922	1128.5
324.81	1166.54
323.697	1123.67
322.585	1197.65
321.472	1157.03
320.359	1226.5
319.246	1212.84
318.133	1264.31
317.019	1288.82
315.906	1351.49
314.792	1277.21
313.678	1386.99
312.564	1328.44
311.45	1449.4
310.335	1464.89
309.221	1399.63
308.106	1462.21
306.991	1618.96
305.876	1616.48
304.761	1777.64
303.645	1826.68
302.53	1911.57
301.414	1855.27
300.298	1881.87
299.182	1798.71
298.066	1744.7
296.949	1625.75
295.833	1567.3
294.716	1488.71
293.599	1510.87
292.482	1474.84
291.365	1497
290.247	1434.13
289.13	1460.76
288.012	1377.78
286.894	1352.98
285.776	1261.1
284.658	1281.04
283.54	1334.49
282.421	1309.71
281.302	1293.87
280.183	1269.1
279.064	1210.83
277.945	1264.26
276.826	1259.6
275.706	1196.89
274.586	1196.71
273.466	1192.07
272.346	1185.2
271.226	1214.03
270.106	1209.39
268.985	1151.2
267.864	1151.03
266.743	1153.09
265.622	1128.39
264.501	1132.68
263.38	1148.12
262.258	1183.61
261.136	1098.74
260.015	1069.61
258.893	1149.66
257.77	1096.02
256.648	1104.77
255.525	1104.61
254.403	1095.53
253.28	1090.92
252.157	1068.5
251.033	1070.56
249.91	1048.15
248.786	1139.22
247.663	1032.26
246.539	1078.82
245.415	994.147
244.29	1074.05
243.166	1067.22
242.041	1069.29
240.917	1040.23
239.792	1086.75
238.667	1035.48
237.541	1075.31
236.416	1039.61
235.29	1081.66
234.165	1070.39
233.039	1052.47
231.913	1023.45
230.786	1012.2
229.66	1029.8
228.533	1029.65
227.407	1084.97
226.28	1027.12
225.152	998.136
224.025	913.713
222.898	871.446
221.77	871.316
220.642	813.55
219.514	817.862
218.386	760.121
217.258	766.655
216.13	786.48
215.001	717.694
213.872	753.023
212.743	806.058
211.614	757.227
210.485	726.121
209.355	699.451
208.226	776.806
207.096	712.519
205.966	747.812
204.836	745.488
203.706	718.835
202.575	729.785
201.444	727.465
200.314	694.195
199.183	696.301
