3199.09	166.617
3198.38	159.527
3197.67	134.693
3196.97	180.748
3196.26	120.482
3195.56	166.526
3194.85	155.876
3194.15	187.734
3193.44	102.708
3192.73	187.682
3192.03	145.168
3191.32	194.712
3190.62	152.208
3189.91	184.041
3189.2	176.938
3188.5	141.531
3187.79	183.965
3187.08	173.328
3186.38	173.305
3185.67	148.527
3184.96	169.721
3184.26	180.304
3183.55	166.14
3182.84	190.858
3182.13	130.755
3181.43	173.139
3180.72	169.582
3180.01	166.027
3179.3	176.6
3178.59	169.513
3177.89	162.428
3177.18	151.814
3176.47	197.684
3175.76	165.891
3175.05	165.868
3174.35	183.489
3173.64	148.182
3172.93	186.966
3172.22	211.631
3171.51	158.701
3170.8	172.785
3170.09	116.349
3169.38	165.687
3168.67	151.565
3167.96	144.496
3167.26	162.095
3166.55	158.55
3165.84	155.005
3165.13	116.238
3164.42	154.963
3163.71	151.42
3163	147.879
3162.29	165.461
3161.58	154.878
3160.87	151.338
3160.16	154.836
3159.44	140.741
3158.73	144.24
3158.02	147.737
3157.31	123.098
3156.6	179.346
3155.89	186.354
3155.18	151.172
3154.47	147.637
3153.76	154.646
3153.05	154.625
3152.33	203.796
3151.62	172.149
3150.91	175.638
3150.2	136.979
3149.49	168.566
3148.78	189.611
3148.06	154.477
3147.35	179.028
3146.64	175.494
3145.93	154.414
3145.21	164.919
3144.5	189.456
3143.79	147.334
3143.08	168.359
3142.36	171.843
3141.65	178.833
3140.94	154.266
3140.22	150.739
3139.51	182.264
3138.8	175.23
3138.08	175.206
3137.37	161.168
3136.66	161.146
3135.94	150.616
3135.23	136.586
3134.52	147.073
3133.8	108.539
3133.09	136.53
3132.37	178.515
3131.66	146.993
3130.94	129.476
3130.23	223.927
3129.51	171.421
3128.8	178.393
3128.09	164.379
3127.37	181.842
3126.66	160.838
3125.94	167.808
3125.23	178.272
3124.51	171.257
3123.79	178.223
3123.08	192.175
3122.36	157.212
3121.65	164.177
3120.93	157.169
3120.22	164.132
3119.5	157.127
3118.78	150.123
3118.07	139.63
3117.35	146.591
3116.63	125.632
3115.92	129.105
3115.2	184.908
3114.49	143.023
3113.77	198.809
3113.05	149.959
3112.33	163.886
3111.62	184.782
3110.9	181.271
3110.18	202.159
3109.47	160.311
3108.75	191.65
3108.03	184.656
3107.31	128.893
3106.6	163.707
3105.88	149.754
3105.16	160.18
3104.44	153.194
3103.72	201.911
3103.01	163.595
3102.29	156.612
3101.57	184.429
3100.85	160.048
3100.13	153.069
3099.41	198.267
3098.69	180.85
3097.97	139.096
3097.26	135.6
3096.54	152.964
3095.82	145.991
3095.1	159.873
3094.38	156.377
3093.66	152.881
3092.94	177.178
3092.22	159.786
3091.5	191.022
3090.78	149.324
3090.06	128.471
3089.34	159.699
3088.62	156.206
3087.9	177.009
3087.18	163.103
3086.46	173.491
3085.74	173.467
3085.02	138.755
3084.3	152.609
3083.58	166.46
3082.85	173.372
3082.13	176.815
3081.41	152.526
3080.69	162.903
3079.97	152.484
3079.25	200.974
3078.53	155.907
3077.8	183.599
3077.08	176.646
3076.36	169.696
3075.64	173.135
3074.92	135.027
3074.2	166.164
3073.47	173.064
3072.75	166.119
3072.03	186.858
3071.31	193.752
3070.58	190.266
3069.86	152.192
3069.14	166.005
3068.41	176.356
3067.69	152.13
3066.97	141.738
3066.24	197.023
3065.52	165.892
3064.8	183.147
3064.07	172.757
3063.35	200.37
3062.63	200.343
3061.9	176.139
3061.18	162.302
3060.45	169.186
3059.73	148.449
3059.01	148.429
3058.28	158.762
3057.56	186.348
3056.83	155.268
3056.11	158.697
3055.38	189.721
3054.66	165.552
3053.93	182.772
3053.21	158.61
3052.48	131.008
3051.76	189.591
3051.03	210.245
3050.31	148.185
3049.58	186.067
3048.86	168.816
3048.13	175.682
3047.4	203.212
3046.68	175.634
3045.95	165.28
3045.23	161.815
3044.5	154.908
3043.77	196.19
3043.05	161.748
3042.32	185.813
3041.59	185.788
3040.87	168.562
3040.14	178.858
3039.41	147.881
3038.69	171.931
3037.96	178.784
3037.23	171.884
3036.51	140.926
3035.78	161.527
3035.05	144.324
3034.32	140.868
3033.6	161.461
3032.87	188.918
3032.14	192.326
3031.41	133.923
3030.68	192.274
3029.95	144.185
3029.23	181.923
3028.5	192.195
3027.77	161.284
3027.04	168.124
3026.31	147.517
3025.58	212.671
3024.85	188.634
3024.13	164.603
3023.4	171.438
3022.67	209.126
3021.94	181.675
3021.21	209.069
3020.48	191.906
3019.75	198.732
3019.02	205.557
3018.29	157.572
3017.56	157.55
3016.83	171.227
3016.1	205.444
3015.37	225.958
3014.64	201.965
3013.91	181.401
3013.18	167.688
3012.45	205.304
3011.72	188.169
3010.99	194.985
3010.26	198.379
3009.52	184.672
3008.79	208.583
3008.06	194.878
3007.33	198.27
3006.6	232.423
3005.87	198.216
3005.14	170.852
3004.4	218.661
3003.67	181.054
3002.94	177.614
3002.21	211.741
3001.48	191.224
3000.74	232.169
3000.01	201.413
2999.28	170.665
2998.55	208.183
2997.81	218.392
2997.08	208.126
2996.35	225.155
2995.62	225.124
2994.88	245.556
2994.15	218.242
2993.42	204.574
2992.68	201.137
2991.95	204.518
2991.22	204.49
2990.48	228.316
2989.75	248.728
2989.01	221.44
2988.28	252.067
2987.55	211.162
2986.81	234.971
2986.08	251.963
2985.34	238.311
2984.61	251.894
2983.87	228.035
2983.14	224.601
2982.41	231.375
2981.67	241.55
2980.94	275.533
2980.2	214.274
2979.47	278.858
2978.73	251.618
2978	254.984
2977.26	285.542
2976.52	231.122
2975.79	285.464
2975.05	295.619
2974.32	278.591
2973.58	305.729
2972.84	281.911
2972.11	312.437
2971.37	288.625
2970.64	298.771
2969.9	315.704
2969.16	308.872
2968.43	295.255
2967.69	308.787
2966.95	274.817
2966.22	288.349
2965.48	329.012
2964.74	291.661
2964	315.358
2963.27	325.486
2962.53	315.271
2961.79	298.28
2961.05	325.352
2960.32	321.919
2959.58	315.099
2958.84	325.219
2958.1	335.336
2957.36	403.025
2956.63	372.493
2955.89	379.214
2955.15	406.245
2954.41	375.725
2953.67	335.06
2952.93	362.086
2952.19	389.105
2951.46	395.817
2950.72	422.824
2949.98	378.798
2949.24	378.746
2948.5	378.695
2947.76	382.023
2947.02	392.112
2946.28	435.996
2945.54	354.832
2944.8	378.435
2944.06	445.952
2943.32	381.709
2942.58	361.392
2941.84	374.851
2941.1	408.565
2940.36	395.005
2939.62	421.956
2938.88	374.645
2938.14	354.346
2937.4	401.537
2936.65	479.079
2935.91	401.427
2935.17	475.575
2934.43	374.337
2933.69	421.493
2932.95	364.12
2932.21	407.894
2931.46	421.32
2930.72	367.341
2929.98	347.073
2929.24	353.763
2928.5	360.452
2927.75	407.558
2927.01	343.514
2926.27	303.059
2925.53	380.456
2924.78	329.908
2924.04	366.888
2923.3	390.396
2922.56	366.787
2921.81	376.831
2921.07	339.774
2920.33	390.182
2919.58	322.865
2918.84	342.997
2918.1	353.037
2917.35	352.988
2916.61	329.411
2915.87	356.252
2915.12	373.006
2914.38	349.435
2913.63	339.308
2912.89	379.57
2912.14	322.422
2911.4	349.243
2910.66	349.195
2909.91	325.647
2909.17	379.31
2908.42	338.983
2907.68	315.446
2906.93	315.402
2906.19	312.004
2905.44	332.088
2904.7	311.919
2903.95	331.997
2903.2	315.186
2902.46	331.906
2901.71	301.691
2900.97	288.243
2900.22	331.769
2899.47	278.112
2898.73	314.927
2897.98	311.534
2897.24	271.299
2896.49	281.308
2895.74	294.664
2895	294.623
2894.25	331.406
2893.5	321.319
2892.76	314.582
2892.01	284.423
2891.26	257.619
2890.51	317.798
2889.77	314.409
2889.02	264.201
2888.27	280.884
2887.52	277.502
2886.78	304.208
2886.03	270.741
2885.28	270.704
2884.53	290.716
2883.78	290.677
2883.03	297.318
2882.29	307.298
2881.54	277.198
2880.79	283.839
2880.04	313.849
2879.29	277.084
2878.54	270.37
2877.79	287.02
2877.04	303.666
2876.29	293.615
2875.55	300.246
2874.8	276.856
2874.05	286.823
2873.3	283.449
2872.55	283.41
2871.8	280.038
2871.05	289.999
2870.3	279.961
2869.55	296.585
2868.8	243.233
2868.05	263.188
2867.3	296.463
2866.54	266.447
2865.79	269.74
2865.04	306.33
2864.29	292.971
2863.54	262.972
2862.79	272.92
2862.04	266.227
2861.29	252.881
2860.54	239.539
2859.78	249.485
2859.03	262.755
2858.28	289.324
2857.53	299.259
2856.78	265.972
2856.03	252.638
2855.27	269.222
2854.52	252.569
2853.77	232.597
2853.02	289.046
2852.26	232.534
2851.51	255.752
2850.76	262.359
2850	232.438
2849.25	255.647
2848.5	298.767
2847.75	268.853
2846.99	252.223
2846.24	245.551
2845.49	248.836
2844.73	255.436
2843.98	205.648
2843.22	255.366
2842.47	265.279
2841.72	242.034
2840.96	215.48
2840.21	265.17
2839.45	218.735
2838.7	271.724
2837.94	212.048
2837.19	225.27
2836.44	251.738
2835.68	215.273
2834.93	251.669
2834.17	195.348
2833.42	244.979
2832.66	228.395
2831.9	221.744
2831.15	268.042
2830.39	234.918
2829.64	205.112
2828.88	201.776
2828.13	254.666
2827.37	244.71
2826.61	251.289
2825.86	241.337
2825.1	247.915
2824.35	228.05
2823.59	234.628
2822.83	244.508
2822.08	234.564
2821.32	244.441
2820.56	244.408
2819.8	264.188
2819.05	254.246
2818.29	260.814
2817.53	214.565
2816.78	250.841
2816.02	234.306
2815.26	273.87
2814.5	214.447
2813.74	230.911
2812.99	234.177
2812.23	240.741
2811.47	204.437
2810.71	257.159
2809.95	243.938
2809.19	227.425
2808.44	220.802
2807.68	260.313
2806.92	253.688
2806.16	233.888
2805.4	243.737
2804.64	243.704
2803.88	230.499
2803.12	227.175
2802.36	246.895
2801.6	240.278
2800.84	217.208
2800.08	243.503
2799.33	263.21
2798.57	230.277
2797.81	240.113
2797.04	213.77
2796.28	256.489
2795.52	226.863
2794.76	259.706
2794	269.531
2793.24	269.494
2792.48	259.599
2791.72	239.85
2790.96	236.531
2790.2	269.346
2789.44	285.73
2788.68	223.299
2787.91	226.551
2787.15	305.31
2786.39	272.443
2785.63	259.278
2784.87	239.553
2784.11	275.612
2783.34	331.345
2782.58	232.894
2781.82	242.701
2781.06	272.181
2780.29	308.211
2779.53	272.107
2778.77	236.012
2778.01	242.534
2777.24	268.717
2776.48	281.787
2775.72	327.614
2774.95	291.536
2774.19	301.322
2773.43	275.082
2772.66	307.788
2771.9	337.211
2771.14	320.797
2770.37	271.658
2769.61	323.981
2768.85	327.209
2768.08	323.892
2767.32	310.763
2766.55	327.074
2765.79	320.488
2765.02	353.143
2764.26	372.711
2763.49	333.432
2762.73	313.775
2761.96	330.072
2761.2	349.632
2760.43	359.386
2759.67	385.47
2758.9	405.014
2758.14	369.035
2757.37	378.78
2756.61	378.728
2755.84	414.585
2755.07	365.568
2754.31	473.215
2753.54	453.571
2752.78	479.61
2752.01	495.855
2751.24	482.74
2750.48	508.764
2749.71	453.259
2748.94	502.103
2748.18	508.554
2747.41	537.82
2746.64	596.409
2745.88	593.068
2745.11	563.663
2744.34	615.709
2743.57	625.396
2742.81	599.256
2742.04	634.994
2741.27	690.257
2740.5	693.417
2739.73	647.752
2738.97	706.245
2738.2	702.894
2737.43	719.066
2736.66	715.713
2735.89	712.362
2735.12	702.507
2734.35	806.471
2733.59	829.12
2732.82	776.99
2732.05	825.642
2731.28	913.281
2730.51	870.91
2729.74	867.541
2728.97	925.899
2728.2	984.242
2727.43	948.38
2726.66	938.507
2725.89	1042.28
2725.12	996.686
2724.35	1016.03
2723.58	980.184
2722.81	1057.93
2722.04	1041.56
2721.27	1057.64
2720.5	1041.28
2719.73	1096.27
2718.96	1083.15
2718.19	1040.85
2717.41	1134.72
2716.64	1115.12
2715.87	1118.21
2715.1	1085.65
2714.33	1156.78
2713.56	1150.14
2712.79	1201.82
2712.01	1227.56
2711.24	1211.2
2710.47	1253.13
2709.7	1282.09
2708.93	1145.96
2708.15	1191.11
2707.38	1187.71
2706.61	1278.15
2705.84	1320.04
2705.06	1297.21
2704.29	1358.49
2703.52	1319.49
2702.74	1257.87
2701.97	1277.1
2701.2	1318.95
2700.42	1344.62
2699.65	1276.57
2698.88	1324.86
2698.1	1369.92
2697.33	1405.26
2696.55	1424.45
2695.78	1453.32
2695.01	1469.26
2694.23	1449.69
2693.46	1372.01
2692.68	1439.61
2691.91	1497.5
2691.13	1397.26
2690.36	1409.97
2689.58	1425.91
2688.81	1380.56
2688.03	1390.04
2687.26	1428.55
2686.48	1363.86
2685.71	1286.3
2684.93	1437.63
2684.16	1279.5
2683.38	1343.78
2682.6	1369.37
2681.83	1275.75
2681.05	1275.58
2680.28	1330.15
2679.5	1233.36
2678.72	1275.05
2677.95	1204.05
2677.17	1203.88
2676.39	1223.03
2675.62	1235.73
2674.84	1206.6
2674.06	1087.4
2673.29	1206.27
2672.51	1164.29
2671.73	1160.92
2670.95	1099.66
2670.18	1003.06
2669.4	954.709
2668.62	1115.28
2667.84	989.796
2667.06	996.086
2666.29	983.098
2665.51	1021.51
2664.73	915.378
2663.95	851.024
2663.17	960.079
2662.39	915
2661.61	828.201
2660.84	879.441
2660.06	792.672
2659.28	872.782
2658.5	850.203
2657.72	785.929
2656.94	756.953
2656.16	795.333
2655.38	756.745
2654.6	695.724
2653.82	730.891
2653.04	724.38
2652.26	743.509
2651.48	679.319
2650.7	733.692
2649.92	659.911
2649.14	701.46
2648.36	634.109
2647.58	598.798
2646.8	672.354
2646.02	633.847
2645.24	569.743
2644.45	576.066
2643.67	598.386
2642.89	572.707
2642.11	550.235
2641.33	569.351
2640.55	534.093
2639.76	562.798
2638.98	498.775
2638.2	521.084
2637.42	498.638
2636.64	460.218
2635.85	488.914
2635.07	508.017
2634.29	447.249
2633.51	501.488
2632.72	533.357
2631.94	472.61
2631.16	510.859
2630.37	488.442
2629.59	440.495
2628.81	456.392
2628.02	475.476
2627.24	453.075
2626.46	440.252
2625.67	443.381
2624.89	414.616
2624.11	456.014
2623.32	446.386
2622.54	436.76
2621.75	411.199
2620.97	385.645
2620.18	372.845
2619.4	417.402
2618.62	414.158
2617.83	385.433
2617.05	372.64
2616.26	439.463
2615.48	401.194
2614.69	378.853
2613.9	350.152
2613.12	334.19
2612.33	324.597
2611.55	330.916
2610.76	321.326
2609.98	346.729
2609.19	289.431
2608.4	337.093
2607.62	356.125
2606.83	352.897
2606.04	286.093
2605.26	375.048
2604.47	308.26
2603.68	346.347
2602.9	295.466
2602.11	339.898
2601.32	333.499
2600.54	320.75
2599.75	308.004
2598.96	307.962
2598.17	314.268
2597.39	292.007
2596.6	336.396
2595.81	310.965
2595.02	323.613
2594.23	260.123
2593.45	314.008
2592.66	282.251
2591.87	279.041
2591.08	279.003
2590.29	285.304
2589.5	313.792
2588.72	272.549
2587.93	313.705
2587.14	291.484
2586.35	256.597
2585.56	291.403
2584.77	281.862
2583.98	288.156
2583.19	281.784
2582.4	281.745
2581.61	341.846
2580.82	224.701
2580.03	262.642
2579.24	275.262
2578.45	265.733
2577.66	294.164
2576.87	256.172
2576.08	262.461
2575.29	294.042
2574.5	271.873
2573.71	243.387
2572.92	278.118
2572.12	218.04
2571.33	259.084
2570.54	268.526
2569.75	277.965
2568.96	268.452
2568.17	227.363
2567.38	268.378
2566.58	249.399
2565.79	261.99
2565	249.33
2564.21	258.762
2563.41	258.727
2562.62	223.989
2561.83	255.501
2561.04	271.235
2560.24	249.123
2559.45	242.783
2558.66	286.886
2557.87	315.215
2557.07	255.289
2556.28	286.767
2555.49	252.068
2554.69	242.582
2553.9	220.498
2553.1	277.16
2552.31	239.332
2551.52	261.34
2550.72	255.007
2549.93	251.824
2549.13	239.2
2548.34	258.049
2547.54	239.134
2546.75	254.831
2545.96	251.65
2545.16	207.583
2544.37	245.291
2543.57	229.536
2542.78	248.367
2541.98	257.763
2541.18	201.153
2540.39	245.122
2539.59	232.519
2538.8	273.33
2538	235.596
2537.21	248.127
2536.41	248.093
2535.61	257.479
2534.82	232.327
2534.02	244.851
2533.22	260.511
2532.43	251.06
2531.63	235.336
2530.83	229.029
2530.04	272.914
2529.24	241.512
2528.44	235.206
2527.65	235.174
2526.85	269.628
2526.05	241.378
2525.25	257.016
2524.46	228.776
2523.66	244.412
2522.86	260.043
2522.06	241.211
2521.26	278.764
2520.47	256.803
2519.67	222.323
2518.87	225.424
2518.07	209.74
2517.27	222.231
2516.47	256.626
2515.67	259.72
2514.87	228.397
2514.07	218.98
2513.28	253.356
2512.48	256.449
2511.68	240.778
2510.88	284.517
2510.08	256.342
2509.28	265.684
2508.48	218.768
2507.68	215.613
2506.88	228.081
2506.08	293.653
2505.28	234.265
2504.48	256.094
2503.68	259.181
2502.88	227.923
2502.07	246.623
2501.27	265.317
2500.47	246.554
2499.67	262.123
2498.87	240.246
2498.07	265.17
2497.27	246.418
2496.47	224.552
2495.66	240.113
2494.86	265.023
2494.06	243.164
2493.26	240.013
2492.46	283.613
2491.65	243.063
2490.85	261.724
2490.05	289.726
2489.25	286.571
2488.44	246.043
2487.64	252.237
2486.84	273.998
2486.03	298.865
2485.23	270.809
2484.43	245.873
2483.62	280.07
2482.82	220.913
2482.02	223.994
2481.21	255.069
2480.41	267.474
2479.61	276.766
2478.8	254.963
2478	258.037
2477.19	264.218
2476.39	310.801
2475.58	211.316
2474.78	301.394
2473.98	292.032
2473.17	270.248
2472.37	282.634
2471.56	279.489
2470.76	288.765
2469.95	263.889
2469.15	270.061
2468.34	279.334
2467.53	288.606
2466.73	285.463
2465.92	328.857
2465.12	269.874
2464.31	276.04
2463.5	254.293
2462.7	285.265
2461.89	288.326
2461.09	275.887
2460.28	297.544
2459.47	269.612
2458.67	300.561
2457.86	303.617
2457.05	278.794
2456.24	297.339
2455.44	303.491
2454.63	322.028
2453.82	315.791
2453.01	284.792
2452.21	281.657
2451.4	312.565
2450.59	269.202
2449.78	269.165
2448.97	309.342
2448.17	272.183
2447.36	256.683
2446.55	306.121
2445.74	231.878
2444.93	302.945
2444.12	275.086
2443.31	284.319
2442.51	244.109
2441.7	268.792
2440.89	265.666
2440.08	290.339
2439.27	265.592
2438.46	302.61
2437.65	265.519
2436.84	250.047
2436.03	228.406
2435.22	259.236
2434.41	234.514
2433.6	271.505
2432.79	225.195
2431.98	252.924
2431.17	225.132
2430.36	218.934
2429.54	255.902
2428.73	218.873
2427.92	212.679
2427.11	261.959
2426.3	243.434
2425.49	212.59
2424.68	274.173
2423.87	249.493
2423.05	221.741
2422.24	230.948
2421.43	209.364
2420.62	243.198
2419.81	252.398
2418.99	215.432
2418.18	218.48
2417.37	178.452
2416.56	199.961
2415.74	187.63
2414.93	224.509
2414.12	230.628
2413.3	224.447
2412.49	233.639
2411.68	205.942
2410.86	230.501
2410.05	208.958
2409.24	224.292
2408.42	178.18
2407.61	202.728
2406.8	211.914
2405.98	202.672
2405.17	205.714
2404.35	227.175
2403.54	184.17
2402.72	245.527
2401.91	227.081
2401.09	193.299
2400.28	230.085
2399.46	171.773
2398.65	187.084
2397.83	177.859
2397.02	211.561
2396.2	229.926
2395.39	208.437
2394.57	229.862
2393.76	189.993
2392.94	205.287
2392.12	189.94
2391.31	174.598
2390.49	186.825
2389.67	177.612
2388.86	214.33
2388.04	202.054
2387.22	223.453
2386.41	183.635
2385.59	226.452
2384.77	180.524
2383.96	208.033
2383.14	204.945
2382.32	211.034
2381.5	174.308
2380.69	223.206
2379.87	201.774
2379.05	186.463
2378.23	226.169
2377.42	229.194
2376.6	183.329
2375.78	216.91
2374.96	216.88
2374.14	210.741
2373.32	183.228
2372.5	213.736
2371.69	201.495
2370.87	210.624
2370.05	195.334
2369.23	170.894
2368.41	198.332
2367.59	173.897
2366.77	201.327
2365.95	216.549
2365.13	189.073
2364.31	225.636
2363.49	222.556
2362.67	176.801
2361.85	161.537
2361.03	198.084
2360.21	210.245
2359.39	213.262
2358.57	185.817
2357.75	191.883
2356.93	228.4
2356.11	191.829
2355.28	182.669
2354.46	210.04
2353.64	179.575
2352.82	194.766
2352	228.21
2351.18	200.797
2350.35	212.937
2349.53	191.616
2348.71	176.384
2347.89	167.238
2347.07	203.698
2346.24	176.311
2345.42	176.286
2344.6	203.613
2343.78	182.314
2342.95	203.556
2342.13	215.679
2341.31	188.313
2340.48	191.324
2339.66	167.006
2338.84	221.631
2338.01	203.387
2337.19	203.358
2336.37	200.295
2335.54	215.439
2334.72	175.968
2333.89	163.81
2333.07	175.919
2332.25	191.058
2331.42	224.387
2330.6	233.451
2329.77	224.324
2328.95	227.324
2328.12	233.354
2327.3	212.11
2326.47	224.2
2325.65	205.993
2324.82	166.589
2324	190.793
2323.17	187.739
2322.34	224.044
2321.52	196.768
2320.69	175.553
2319.87	184.608
2319.04	175.504
2318.21	166.403
2317.39	172.431
2316.56	187.53
2315.73	214.722
2314.91	181.43
2314.08	199.545
2313.25	193.472
2312.43	148.106
2311.6	190.396
2310.77	217.565
2309.94	181.279
2309.12	208.442
2308.29	193.31
2307.46	190.264
2306.63	178.159
2305.81	223.422
2304.98	199.241
2304.15	199.213
2303.32	196.167
2302.49	175.017
2301.66	178.01
2300.83	187.035
2300.01	208.123
2299.18	177.936
2298.35	186.957
2297.52	162.811
2296.69	186.905
2295.86	168.794
2295.03	213.977
2294.2	195.868
2293.37	210.905
2292.54	165.688
2291.71	198.798
2290.88	195.759
2290.05	183.686
2289.22	210.758
2288.39	171.594
2287.56	186.62
2286.73	135.431
2285.9	186.568
2285.07	183.533
2284.24	183.508
2283.41	183.482
2282.57	174.434
2281.74	210.495
2280.91	195.432
2280.08	198.411
2279.25	210.407
2278.42	183.329
2277.58	192.318
2276.75	183.278
2275.92	234.323
2275.09	189.235
2274.25	192.212
2273.42	168.162
2272.59	177.146
2271.76	174.119
2270.92	177.096
2270.09	198.08
2269.26	180.048
2268.42	198.025
2267.59	197.998
2266.76	212.968
2265.92	182.947
2265.09	161.93
2264.26	197.887
2263.42	209.851
2262.59	200.83
2261.75	167.834
2260.92	158.821
2260.09	200.746
2259.25	152.785
2258.42	209.676
2257.58	194.672
2256.75	173.683
2255.91	161.683
2255.08	188.604
2254.24	200.551
2253.41	167.601
2252.57	197.502
2251.74	182.515
2250.9	194.456
2250.06	188.446
2249.23	164.494
2248.39	218.297
2247.56	176.408
2246.72	194.32
2245.88	197.282
2245.05	224.153
2244.21	203.204
2243.37	194.212
2242.54	185.223
2241.7	191.171
2240.86	200.104
2240.03	179.173
2239.19	146.304
2238.35	185.094
2237.51	170.143
2236.68	196.98
2235.84	170.096
2235	190.958
2234.16	205.848
2233.32	190.905
2232.49	202.808
2231.65	205.762
2230.81	202.752
2229.97	196.761
2229.13	193.753
2228.29	128.157
2227.45	151.979
2226.62	184.733
2225.78	193.645
2224.94	223.405
2224.1	184.656
2223.26	208.454
2222.42	172.695
2221.58	196.487
2220.74	187.53
2219.9	172.622
2219.06	178.55
2218.22	157.697
2217.38	178.5
2216.54	184.425
2215.7	157.631
2214.86	193.295
2214.02	166.507
2213.17	199.187
2212.33	196.186
2211.49	193.187
2210.65	178.301
2209.81	181.248
2208.97	157.456
2208.13	219.813
2207.28	213.843
2206.44	190.056
2205.6	184.091
2204.76	187.034
2203.92	192.945
2203.07	204.79
2202.23	216.631
2201.39	180.995
2200.55	178.003
2199.7	201.709
2198.86	195.749
2198.02	204.618
2197.17	192.73
2196.33	174.915
2195.49	213.426
2194.64	192.649
2193.8	151.134
2192.96	183.706
2192.11	183.681
2191.27	198.466
2190.43	186.591
2189.58	207.295
2188.74	204.305
2187.89	165.79
2187.05	183.527
2186.2	189.421
2185.36	177.557
2184.51	159.779
2183.67	159.757
2182.82	192.273
2181.98	165.628
2181.13	195.177
2180.29	177.409
2179.44	162.602
2178.6	183.271
2177.75	156.646
2176.9	153.669
2176.06	195.014
2175.21	209.758
2174.37	150.65
2173.52	206.746
2172.67	203.764
2171.83	191.925
2170.98	200.755
2170.13	194.823
2169.28	188.893
2168.44	180.014
2167.59	168.186
2166.74	179.963
2165.9	197.637
2165.05	153.369
2164.2	156.296
2163.35	182.812
2162.5	191.631
2161.66	197.499
2160.81	167.998
2159.96	185.657
2159.11	179.738
2158.26	170.874
2157.41	200.307
2156.56	167.881
2155.72	170.803
2154.87	159.001
2154.02	191.363
2153.17	182.506
2152.32	191.31
2151.47	205.997
2150.62	170.66
2149.77	197.114
2148.92	191.203
2148.07	205.882
2147.22	194.091
2146.37	167.6
2145.52	179.337
2144.67	167.553
2143.82	179.287
2142.97	191.016
2142.12	179.236
2141.27	167.46
2140.41	187.999
2139.56	196.784
2138.71	190.883
2137.86	173.239
2137.01	167.343
2136.16	202.545
2135.31	184.906
2134.45	170.208
2133.6	173.118
2132.75	173.094
2131.9	199.47
2131.05	190.643
2130.19	199.414
2129.34	187.658
2128.49	158.314
2127.63	175.88
2126.78	146.546
2125.93	158.248
2125.08	161.156
2124.22	193.36
2123.37	172.828
2122.51	178.662
2121.66	231.349
2120.81	207.892
2119.95	193.225
2119.1	193.198
2118.25	160.976
2117.39	175.585
2116.54	181.413
2115.68	216.495
2114.83	204.764
2113.97	184.262
2113.12	166.69
2112.26	222.222
2111.41	181.261
2110.55	192.928
2109.7	207.515
2108.84	163.651
2107.99	201.613
2107.13	192.82
2106.27	198.636
2105.42	157.718
2104.56	175.218
2103.71	218.992
2102.85	183.927
2101.99	172.225
2101.14	183.876
2100.28	154.668
2099.42	183.824
2098.57	186.716
2097.71	218.777
2096.85	174.997
2096	180.805
2095.14	163.285
2094.28	204.078
2093.42	160.325
2092.56	192.363
2091.71	250.619
2090.85	212.705
2089.99	186.455
2089.13	198.081
2088.27	198.053
2087.42	192.201
2086.56	189.263
2085.7	183.414
2084.84	171.744
2083.98	203.736
2083.12	162.966
2082.26	168.763
2081.4	151.283
2080.54	194.895
2079.68	206.502
2078.82	171.576
2077.96	203.537
2077.1	194.786
2076.24	168.597
2075.38	217.983
2074.52	203.423
2073.66	191.772
2072.8	200.461
2071.94	197.528
2071.08	182.978
2070.22	203.28
2069.36	197.445
2068.5	191.611
2067.64	168.362
2066.78	214.776
2065.91	188.628
2065.05	232.126
2064.19	194.378
2063.33	191.45
2062.47	203.025
2061.61	202.996
2060.74	214.566
2059.88	173.948
2059.02	194.215
2058.16	194.188
2057.29	165.181
2056.43	211.518
2055.57	176.723
2054.7	266.496
2053.84	194.052
2052.98	196.92
2052.11	185.311
2051.25	205.551
2050.39	164.996
2049.52	182.339
2048.66	153.375
2047.8	202.542
2046.93	199.621
2046.07	202.485
2045.2	170.642
2044.34	222.672
2043.47	182.16
2042.61	173.462
2041.74	208.125
2040.88	193.645
2040.01	179.168
2039.15	231.153
2038.28	184.896
2037.42	202.202
2036.55	190.621
2035.69	187.706
2034.82	207.892
2033.95	199.202
2033.09	184.741
2032.22	187.601
2031.36	216.433
2030.49	187.549
2029.62	204.832
2028.76	190.381
2027.89	204.775
2027.02	210.514
2026.16	187.417
2025.29	190.274
2024.42	178.717
2023.55	213.278
2022.69	219.011
2021.82	201.693
2020.95	178.617
2020.08	181.473
2019.22	158.406
2018.35	192.941
2017.48	184.276
2016.61	187.129
2015.74	198.617
2014.87	184.198
2014	175.539
2013.14	204.288
2012.27	210.013
2011.4	184.095
2010.53	221.458
2009.66	207.049
2008.79	158.14
2007.92	204.116
2007.05	192.589
2006.18	192.562
2005.31	189.662
2004.44	204.001
2003.57	224.083
2002.7	232.669
2001.83	198.172
2000.96	206.759
2000.09	198.116
1999.22	203.83
1998.35	155.004
1997.48	189.423
1996.6	206.614
1995.73	215.193
1994.86	180.736
1993.99	195.053
1993.12	189.29
1992.25	223.675
1991.37	232.245
1990.5	174.876
1989.63	183.451
1988.76	209.219
1987.89	203.459
1987.01	209.161
1986.14	206.266
1985.27	183.322
1984.39	200.481
1983.52	191.862
1982.65	217.604
1981.77	186.082
1980.9	194.643
1980.03	211.788
1979.15	200.312
1978.28	197.423
1977.41	183.091
1976.53	217.39
1975.66	183.04
1974.78	203.031
1973.91	203.003
1973.04	191.539
1972.16	240.105
1971.29	188.627
1970.41	168.598
1969.54	185.717
1968.66	202.832
1967.79	205.66
1966.91	237.047
1966.04	217.024
1965.16	214.139
1964.28	157.013
1963.41	202.661
1962.53	176.947
1961.66	185.483
1960.78	205.429
1959.9	188.283
1959.03	199.666
1958.15	228.158
1957.27	242.384
1956.4	242.35
1955.52	176.748
1954.64	193.826
1953.77	182.398
1952.89	196.621
1952.01	168.101
1951.13	190.868
1950.26	165.206
1949.38	196.51
1948.5	193.635
1947.62	224.927
1946.74	210.661
1945.87	185.014
1944.99	184.988
1944.11	227.646
1943.23	230.459
1942.35	230.427
1941.47	184.885
1940.59	213.298
1939.71	199.05
1938.83	187.65
1937.95	173.41
1937.08	213.179
1936.2	204.623
1935.32	204.594
1934.44	181.836
1933.56	176.129
1932.68	227.231
1931.8	187.439
1930.91	195.931
1930.03	224.296
1929.15	176.005
1928.27	156.111
1927.39	195.821
1926.51	224.17
1925.63	221.301
1924.75	195.739
1923.87	207.057
1922.99	192.848
1922.1	201.328
1921.22	187.123
1920.34	209.775
1919.46	232.421
1918.58	178.542
1917.69	206.853
1916.81	229.49
1915.93	184.133
1915.05	206.766
1914.16	195.409
1913.28	181.223
1912.4	212.341
1911.51	195.327
1910.63	186.808
1909.75	192.442
1908.86	186.755
1907.98	209.363
1907.1	212.162
1906.21	189.505
1905.33	192.306
1904.45	166.831
1903.56	192.252
1902.68	189.398
1901.79	169.587
1900.91	211.954
1900.02	180.842
1899.14	206.244
1898.25	163.842
1897.37	217.483
1896.48	206.157
1895.6	214.599
1894.71	183.512
1893.83	172.195
1892.94	203.218
1892.05	200.367
1891.17	183.409
1890.28	205.954
1889.4	214.387
1888.51	157.947
1887.62	180.486
1886.74	217.117
1885.85	197.351
1884.96	236.788
1884.08	180.384
1883.19	197.268
1882.3	211.328
1881.41	200.029
1880.53	194.367
1879.64	199.973
1878.75	177.416
1877.86	199.917
1876.98	191.443
1876.09	239.27
1875.2	205.462
1874.31	191.362
1873.42	168.825
1872.53	199.748
1871.64	202.533
1870.76	205.317
1869.87	261.531
1868.98	199.636
1868.09	224.91
1867.2	236.122
1866.31	213.604
1865.42	205.144
1864.53	193.876
1863.64	196.658
1862.75	196.63
1861.86	216.263
1860.97	190.958
1860.08	193.739
1859.19	182.482
1858.3	216.141
1857.41	196.464
1856.52	202.049
1855.63	185.185
1854.73	199.186
1853.84	193.548
1852.95	179.498
1852.06	185.081
1851.17	190.663
1850.28	187.832
1849.39	213.034
1848.49	184.977
1847.6	168.137
1846.71	207.34
1845.82	165.288
1844.92	226.889
1844.03	187.647
1843.14	184.821
1842.25	184.794
1841.35	195.967
1840.46	181.943
1839.57	201.509
1838.67	221.069
1837.78	195.856
1836.89	215.411
1835.99	204.192
1835.1	204.164
1834.2	173.375
1833.31	218.086
1832.42	195.691
1831.52	187.277
1830.63	184.456
1829.73	240.318
1828.84	231.902
1827.94	215.108
1827.05	212.285
1826.15	195.498
1825.26	161.961
1824.36	201.027
1823.47	159.124
1822.57	187.014
1821.67	220.478
1820.78	206.494
1819.88	192.515
1818.99	203.646
1818.09	195.25
1817.19	217.533
1816.3	197.983
1815.4	234.201
1814.5	178.413
1813.61	197.899
1812.71	239.675
1811.81	192.271
1810.92	167.168
1810.02	189.431
1809.12	236.755
1808.22	197.732
1807.32	194.92
1806.43	192.108
1805.53	186.513
1804.63	175.353
1803.73	217.074
1802.83	172.521
1801.94	250.399
1801.04	189.164
1800.14	183.574
1799.24	186.329
1798.34	191.864
1797.44	183.496
1796.54	191.81
1795.64	194.563
1794.74	208.43
1793.84	208.401
1792.94	213.928
1792.04	202.786
1791.14	208.313
1790.24	227.723
1789.34	188.817
1788.44	213.777
1787.54	227.627
1786.64	202.615
1785.74	216.462
1784.84	185.909
1783.94	216.401
1783.04	213.596
1782.13	208.019
1781.23	207.99
1780.33	216.279
1779.43	180.207
1778.53	210.674
1777.63	199.557
1776.72	193.987
1775.82	202.272
1774.92	235.489
1774.02	254.846
1773.11	216.035
1772.21	207.696
1771.31	210.436
1770.41	188.258
1769.5	191
1768.6	199.276
1767.7	190.946
1766.79	221.355
1765.89	221.324
1764.98	182.566
1764.08	224.027
1763.18	232.292
1762.27	223.964
1761.37	229.461
1760.46	187.966
1759.56	207.286
1758.65	196.203
1757.75	168.545
1756.85	182.334
1755.94	234.792
1755.03	204.378
1754.13	223.679
1753.22	204.32
1752.32	196.009
1751.41	229.105
1750.51	215.273
1749.6	215.243
1748.69	201.417
1747.79	187.595
1746.88	204.118
1745.98	206.847
1745.07	195.788
1744.16	226.089
1743.26	198.489
1742.35	190.192
1741.44	209.457
1740.53	217.694
1739.63	239.706
1738.72	234.162
1737.81	198.321
1736.9	179.014
1736	234.063
1735.09	209.25
1734.18	220.232
1733.27	220.201
1732.36	211.913
1731.46	261.415
1730.55	195.345
1729.64	222.827
1728.73	192.54
1727.82	233.765
1726.91	195.235
1726	244.697
1725.09	236.415
1724.18	219.89
1723.27	203.369
1722.36	211.584
1721.45	228.039
1720.54	211.524
1719.63	214.241
1718.72	233.435
1717.81	225.164
1716.9	225.132
1715.99	233.336
1715.08	238.792
1714.17	222.292
1713.26	227.749
1712.35	238.691
1711.44	200.253
1710.52	224.909
1709.61	211.166
1708.7	208.394
1707.79	219.331
1706.88	235.747
1705.96	224.75
1705.05	213.757
1704.14	221.947
1703.23	235.614
1702.31	227.363
1701.4	251.981
1700.49	227.298
1699.58	202.623
1698.66	229.972
1697.75	249.101
1696.84	254.539
1695.92	240.82
1695.01	232.578
1694.09	229.809
1693.18	237.983
1692.27	224.274
1691.35	243.385
1690.44	232.413
1689.52	202.307
1688.61	284.284
1687.69	235.048
1686.78	248.678
1685.86	204.925
1684.95	237.68
1684.03	240.378
1683.12	237.612
1682.2	264.887
1681.29	248.467
1680.37	229.321
1679.46	215.641
1678.54	212.881
1677.62	256.513
1676.71	251.019
1675.79	223.703
1674.88	253.676
1673.96	270.004
1673.04	234.516
1672.12	204.49
1671.21	269.889
1670.29	245.319
1669.37	253.46
1668.46	275.224
1667.54	231.592
1666.62	253.353
1665.7	239.698
1664.78	272.345
1663.87	261.414
1662.95	294.049
1662.03	250.451
1661.11	225.918
1660.19	304.811
1659.27	258.508
1658.36	274.796
1657.44	285.638
1656.52	244.798
1655.6	252.922
1654.68	261.044
1653.76	258.288
1652.84	250.096
1651.92	271.805
1651	298.944
1650.08	288.032
1649.16	301.576
1648.24	309.682
1647.32	315.071
1646.4	312.31
1645.48	279.682
1644.56	323.082
1643.64	271.459
1642.71	369.132
1641.79	325.658
1640.87	358.173
1639.95	360.836
1639.03	344.508
1638.11	382.431
1637.19	409.496
1636.26	433.842
1635.34	422.936
1634.42	468.958
1633.5	501.416
1632.57	504.055
1631.65	574.433
1630.73	647.5
1629.81	674.496
1628.88	758.362
1627.96	836.788
1627.04	936.853
1626.11	1017.94
1625.19	1066.52
1624.27	1117.79
1623.34	1136.58
1622.42	1171.59
1621.49	1152.48
1620.57	1214.54
1619.65	1154.86
1618.72	1076.28
1617.8	1073.42
1616.87	967.833
1615.95	1056.9
1615.02	918.911
1614.1	926.887
1613.17	926.755
1612.25	991.461
1611.32	999.423
1610.39	926.361
1609.47	910.027
1608.54	953.098
1607.62	966.461
1606.69	963.624
1605.76	1006.67
1604.84	1090.18
1603.91	1030.67
1602.98	1049.4
1602.06	1097.81
1601.13	1100.35
1600.2	1202.66
1599.28	1304.94
1598.35	1380.24
1597.42	1393.52
1596.49	1476.87
1595.57	1530.55
1594.64	1659.66
1593.71	1748.32
1592.78	1920.46
1591.85	1998.28
1590.93	2124.56
1590	2380.03
1589.07	2468.52
1588.14	2624.28
1587.21	2734.25
1586.28	3083.67
1585.35	3120.9
1584.42	3405.6
1583.49	3410.49
1582.56	3434.21
1581.63	3530.52
1580.7	3605.3
1579.77	3481.13
1578.84	3324.75
1577.91	3060.92
1576.98	2961.06
1576.05	2667.8
1575.12	2476.7
1574.19	2352.8
1573.26	2185.97
1572.33	2016.5
1571.4	1919.56
1570.47	1640.12
1569.54	1562.05
1568.6	1435.7
1567.67	1357.69
1566.74	1231.4
1565.81	1190.99
1564.88	1086.22
1563.94	1051.21
1563.01	949.169
1562.08	895.416
1561.15	828.276
1560.21	849.599
1559.28	769.086
1558.35	739.504
1557.41	712.609
1556.48	712.508
1555.55	685.624
1554.61	634.648
1553.68	637.235
1552.75	629.113
1551.81	604.933
1550.88	540.616
1549.94	551.243
1549.01	553.84
1548.07	516.309
1547.14	542.983
1546.21	500.115
1545.27	462.608
1544.34	494.626
1543.4	457.13
1542.46	424.99
1541.53	446.31
1540.59	424.869
1539.66	408.778
1538.72	456.805
1537.79	392.636
1536.85	397.921
1535.91	413.886
1534.98	400.478
1534.04	371.057
1533.1	411.04
1532.17	392.301
1531.23	362.893
1530.29	389.521
1529.36	381.463
1528.42	352.07
1527.48	373.354
1526.54	357.302
1525.61	386.578
1524.67	397.186
1523.73	306.509
1522.79	343.774
1521.85	391.687
1520.92	327.692
1519.98	391.576
1519.04	327.598
1518.1	327.552
1517.16	354.131
1516.22	327.458
1515.28	300.793
1514.34	324.704
1513.4	321.996
1512.46	359.201
1511.52	335.206
1510.58	319.199
1509.64	335.111
1508.7	351.019
1507.76	316.404
1506.82	337.626
1505.88	321.63
1504.94	348.161
1504	358.741
1503.06	324.149
1502.12	340.043
1501.18	313.432
1500.24	337.29
1499.3	302.721
1498.35	342.504
1497.41	353.074
1496.47	339.752
1495.53	347.665
1494.59	281.277
1493.64	344.913
1492.7	313.031
1491.76	302.376
1490.82	323.55
1489.87	328.807
1488.93	318.155
1487.99	312.808
1487.04	296.86
1486.1	344.52
1485.16	352.421
1484.21	328.526
1483.27	304.638
1482.33	320.486
1481.38	309.847
1480.44	328.338
1479.49	322.997
1478.55	338.833
1477.61	352.019
1476.66	322.859
1475.72	346.627
1474.77	320.121
1473.83	335.947
1472.88	354.413
1471.94	346.429
1470.99	349.024
1470.04	348.974
1469.1	330.421
1468.15	330.373
1467.21	348.825
1466.26	303.857
1465.31	327.59
1464.37	338.11
1463.42	345.985
1462.47	353.857
1461.53	367.009
1460.58	361.676
1459.63	316.752
1458.69	348.377
1457.74	345.689
1456.79	329.809
1455.84	371.971
1454.9	348.178
1453.95	353.403
1453	337.531
1452.05	379.668
1451.1	350.616
1450.15	353.202
1449.21	382.141
1448.26	342.561
1447.31	363.589
1446.36	353
1445.41	366.12
1444.46	342.365
1443.51	331.784
1442.56	323.838
1441.61	339.586
1440.66	365.859
1439.71	363.175
1438.76	336.81
1437.81	365.702
1436.86	391.955
1435.91	360.337
1434.96	376.065
1434.01	347.087
1433.06	365.441
1432.11	362.76
1431.16	339.053
1430.21	352.145
1429.25	367.86
1428.3	373.062
1427.35	346.74
1426.4	370.329
1425.45	328.259
1424.49	378.1
1423.54	404.299
1422.59	375.367
1421.64	367.44
1420.68	393.629
1419.73	383.078
1418.78	367.282
1417.83	409.199
1416.87	382.914
1415.92	354.013
1414.97	374.938
1414.01	406.344
1413.06	385.316
1412.1	380.019
1411.15	411.411
1410.2	437.553
1409.24	453.208
1408.29	445.286
1407.33	411.176
1406.38	445.158
1405.42	466.04
1404.47	416.235
1403.51	424.028
1402.56	426.584
1401.6	408.206
1400.65	426.462
1399.69	463.025
1398.74	455.112
1397.78	478.584
1396.82	533.427
1395.87	486.29
1394.91	488.835
1393.95	548.881
1393	543.575
1392.04	546.111
1391.08	556.483
1390.13	629.546
1389.17	626.844
1388.21	621.531
1387.26	660.609
1386.3	663.125
1385.34	699.575
1384.38	702.085
1383.42	733.3
1382.47	790.599
1381.51	827.01
1380.55	863.41
1379.59	860.679
1378.63	910.103
1377.67	920.402
1376.71	1029.76
1375.76	1097.39
1374.8	1154.57
1373.84	1227.37
1372.88	1261.07
1371.92	1341.64
1370.96	1458.67
1370	1531.38
1369.04	1669.17
1368.08	1760.06
1367.12	1832.7
1366.16	1988.61
1365.2	1954.5
1364.24	2214.43
1363.27	2279.16
1362.31	2393.3
1361.35	2431.97
1360.39	2587.66
1359.43	2740.71
1358.47	2685.72
1357.51	2867.3
1356.54	2950.07
1355.58	3105.57
1354.62	3053.16
1353.66	3206.01
1352.7	3247.11
1351.73	3332.36
1350.77	3513.67
1349.81	3352.18
1348.85	3549.01
1347.88	3434.28
1346.92	3366.31
1345.96	3555.27
1344.99	3469.13
1344.03	3344.11
1343.06	3369.57
1342.1	3249.78
1341.14	3148.18
1340.17	3212.55
1339.21	3056.54
1338.24	2947.23
1337.28	2835.37
1336.31	2710.58
1335.35	2578.05
1334.38	2518.09
1333.42	2341.59
1332.45	2271.33
1331.49	2100.1
1330.52	2022.12
1329.56	1954.53
1328.59	1858.47
1327.63	1793.51
1326.66	1736.32
1325.69	1645.52
1324.73	1534.04
1323.76	1510.55
1322.79	1370.68
1321.83	1391.17
1320.86	1259.11
1319.89	1295.12
1318.93	1194.13
1317.96	1157.78
1316.99	1043.92
1316.02	1051.52
1315.05	984.205
1314.09	922.076
1313.12	883.207
1312.15	906.319
1311.18	906.189
1310.21	774.41
1309.25	815.595
1308.28	828.381
1307.31	774.077
1306.34	740.427
1305.37	696.469
1304.4	660.261
1303.43	685.954
1302.46	623.974
1301.49	590.37
1300.52	654.727
1299.55	590.201
1298.58	564.347
1297.61	582.302
1296.64	528.119
1295.67	564.104
1294.7	540.844
1293.73	576.818
1292.76	540.689
1291.79	540.612
1290.82	483.907
1289.84	548.177
1288.87	463.182
1287.9	483.698
1286.93	450.187
1285.96	444.978
1284.98	496.349
1284.01	452.564
1283.04	434.502
1282.07	429.299
1281.09	452.369
1280.12	436.885
1279.15	452.24
1278.18	413.637
1277.2	408.44
1276.23	413.518
1275.26	374.938
1274.28	421.103
1273.31	395.369
1272.33	403.013
1271.36	395.256
1270.39	364.404
1269.41	418.235
1268.44	402.782
1267.46	361.682
1266.49	384.713
1265.51	359.014
1264.54	371.782
1263.56	356.347
1262.59	346.043
1261.61	392.126
1260.64	330.568
1259.66	335.645
1258.69	394.518
1257.71	356.04
1256.73	338.062
1255.76	320.088
1254.78	373.809
1253.8	325.116
1252.83	322.51
1251.85	376.207
1250.87	330.094
1249.9	337.722
1248.92	350.464
1247.94	304.374
1246.96	381.052
1245.99	332.414
1245.01	352.819
1244.03	311.868
1243.05	304.155
1242.07	291.334
1241.1	324.509
1240.12	309.134
1239.14	296.317
1238.16	275.842
1237.18	306.447
1236.2	301.296
1235.22	314.018
1234.24	324.183
1233.26	344.554
1232.28	341.953
1231.3	318.94
1230.32	278.076
1229.34	290.79
1228.36	303.5
1227.38	280.506
1226.4	313.612
1225.42	305.919
1224.44	298.228
1223.46	293.088
1222.48	298.142
1221.5	272.621
1220.52	305.699
1219.53	267.448
1218.55	277.596
1217.57	282.649
1216.59	302.977
1215.61	264.748
1214.63	305.435
1213.64	282.487
1212.66	277.357
1211.68	300.215
1210.7	249.295
1209.71	259.433
1208.73	289.913
1207.75	297.499
1206.76	299.999
1205.78	294.872
1204.8	236.372
1203.81	292.246
1202.83	292.204
1201.84	248.972
1200.86	259.097
1199.88	302.237
1198.89	307.272
1197.91	238.673
1196.92	297.029
1195.94	319.831
1194.95	261.412
1193.97	268.987
1192.98	309.544
1192	291.741
1191.01	258.725
1190.02	271.368
1189.04	281.472
1188.05	266.219
1187.07	245.9
1186.08	304.163
1185.09	255.967
1184.11	266.066
1183.12	286.296
1182.13	271.056
1181.15	258.352
1180.16	283.64
1179.17	278.535
1178.18	258.241
1177.2	263.266
1176.21	280.946
1175.22	245.476
1174.23	293.516
1173.24	242.875
1172.26	260.547
1171.27	273.156
1170.28	288.29
1169.29	290.777
1168.3	275.566
1167.31	245.193
1166.32	272.959
1165.33	277.974
1164.34	260.247
1163.36	242.526
1162.37	270.276
1161.38	262.66
1160.39	267.673
1159.4	252.485
1158.41	257.498
1157.41	310.467
1156.42	292.756
1155.43	272.527
1154.44	259.872
1153.45	280.016
1152.46	259.797
1151.47	259.76
1150.48	274.852
1149.49	242.037
1148.49	284.856
1147.5	277.254
1146.51	257.053
1145.52	269.614
1144.53	262.017
1143.53	294.727
1142.54	277.054
1141.55	259.386
1140.56	279.492
1139.56	284.487
1138.57	281.929
1137.58	294.472
1136.58	289.397
1135.59	276.774
1134.6	286.797
1133.6	296.818
1132.61	296.775
1131.61	276.615
1130.62	271.546
1129.62	256.423
1128.63	306.658
1127.64	233.73
1126.64	256.312
1125.65	293.963
1124.65	271.311
1123.65	293.878
1122.66	278.767
1121.66	253.616
1120.67	253.58
1119.67	331.363
1118.68	308.726
1117.68	276.056
1116.68	326.201
1115.69	306.083
1114.69	308.548
1113.69	293.454
1112.7	298.427
1111.7	280.832
1110.7	288.313
1109.71	285.765
1108.71	300.761
1107.71	263.128
1106.71	288.146
1105.71	285.6
1104.72	280.549
1103.72	313.067
1102.72	297.997
1101.72	280.427
1100.72	285.393
1099.72	260.321
1098.73	285.311
1097.73	325.308
1096.73	295.237
1095.73	312.706
1094.73	262.635
1093.73	307.613
1092.73	305.068
1091.73	270.022
1090.73	289.981
1089.73	272.443
1088.73	252.411
1087.73	282.359
1086.73	279.82
1085.73	282.278
1084.73	267.251
1083.72	262.218
1082.72	279.658
1081.72	257.149
1080.72	279.578
1079.72	269.554
1078.72	272.01
1077.71	286.942
1076.71	264.447
1075.71	244.454
1074.71	329.217
1073.71	266.826
1072.7	266.788
1071.7	261.763
1070.7	281.666
1069.69	321.502
1068.69	301.52
1067.69	261.612
1066.68	266.556
1065.68	276.481
1064.68	263.989
1063.67	246.52
1062.67	278.851
1061.66	231.512
1060.66	253.88
1059.65	276.241
1058.65	253.807
1057.65	283.625
1056.64	251.246
1055.64	273.594
1054.63	253.66
1053.62	261.083
1052.62	258.559
1051.61	283.379
1050.61	290.795
1049.6	278.327
1048.6	290.71
1047.59	293.153
1046.58	332.854
1045.58	293.068
1044.57	312.892
1043.56	307.881
1042.56	295.423
1041.55	345.024
1040.54	352.42
1039.53	419.369
1038.53	446.6
1037.52	416.766
1036.51	478.716
1035.5	426.566
1034.49	486.016
1033.49	473.549
1032.48	513.144
1031.47	530.42
1030.46	582.386
1029.45	569.913
1028.44	589.65
1027.43	611.859
1026.42	641.492
1025.41	688.452
1024.4	614.07
1023.39	708.058
1022.38	683.202
1021.37	747.454
1020.36	717.65
1019.35	786.826
1018.34	796.608
1017.33	821.228
1016.32	806.27
1015.31	850.665
1014.3	865.376
1013.29	934.471
1012.28	909.618
1011.26	946.557
1010.25	973.602
1009.24	1015.46
1008.23	1047.43
1007.22	1027.52
1006.2	1069.35
1005.19	1071.67
1004.18	1143.11
1003.17	1189.85
1002.15	1174.87
1001.14	1330.17
1000.13	1255.95
999.115	1337.19
998.101	1398.66
997.088	1477.39
996.074	1570.88
995.06	1681.61
994.046	1740.54
993.032	1890.65
992.017	2018.53
991.003	2210.46
989.988	2338.26
988.973	2537.47
987.958	2756.33
986.943	2928.33
985.928	3041.18
984.913	3190.92
983.897	3106.76
982.882	3212.15
981.866	3361.81
980.85	3371.17
979.834	3363.3
978.817	3348.05
977.801	3416.43
976.784	3329.86
975.768	3376.1
974.751	3338.73
973.734	3303.83
972.717	3413.96
971.699	3293.04
970.682	3307.31
969.664	3208.56
968.647	3311.26
967.629	3305.87
966.611	3266.1
965.593	3160.04
964.574	3363.35
963.556	3235.22
962.537	3153.76
961.518	3212.2
960.499	3201.92
959.48	3257.87
958.461	3176.46
957.442	3276.55
956.422	3177.99
955.403	3148.1
954.383	3091.26
953.363	3176.6
952.343	3222.71
951.322	3141.38
950.302	3177.67
949.282	3113.52
948.261	3137.56
947.24	3102.82
946.219	3217.45
945.198	3168.02
944.177	3253.24
943.155	3260.11
942.134	3313.47
941.112	3484.27
940.09	3268.47
939.068	3184.83
938.046	3071.86
937.023	2721.72
936.001	2577.07
934.978	2346.9
933.955	2175.45
932.933	1996.73
931.909	1852.26
930.886	1695.62
929.863	1521.93
928.839	1370.27
927.816	1169.81
926.792	1106.16
925.768	942.415
924.744	881.249
923.72	849.391
922.695	812.661
921.671	810.103
920.646	741.674
919.621	756.202
918.596	731.702
917.571	716.964
916.546	660.779
915.52	660.683
914.494	641.086
913.469	653.179
912.443	667.705
911.417	611.568
910.391	635.841
909.364	635.748
908.338	599.124
907.311	618.518
906.284	633.036
905.257	618.338
904.23	589.039
903.203	608.423
902.176	664.301
901.148	683.669
900.12	610.59
899.092	600.772
898.064	605.549
897.036	566.556
896.008	622.391
894.98	615.008
893.951	617.349
892.922	580.807
891.893	590.442
890.864	621.939
889.835	556.263
888.806	602.328
887.776	553.672
886.747	563.304
885.717	587.499
884.687	558.285
883.657	577.62
882.627	606.655
881.596	538.631
880.566	550.683
879.535	606.39
878.504	555.373
877.473	606.214
876.442	572.183
875.411	540.585
874.379	586.559
873.348	567.086
872.316	530.657
871.284	574.189
870.252	627.398
869.22	547.379
868.188	610.263
867.155	578.697
866.122	593.139
865.09	617.259
864.057	605.067
863.024	556.581
861.99	600.052
860.957	580.611
859.923	563.594
858.89	609.464
857.856	575.521
856.822	565.766
855.788	614.032
854.753	628.446
853.719	604.187
852.684	555.771
851.65	577.434
850.615	548.362
849.58	589.342
848.544	574.767
847.509	567.439
846.474	608.399
845.438	552.79
844.402	572.018
843.366	533.323
842.33	559.787
841.294	564.53
840.257	576.509
839.221	576.425
838.184	557.049
837.147	602.779
836.11	571.351
835.073	605.014
834.036	614.566
832.998	624.115
831.961	645.708
830.923	575.753
829.885	655.155
828.847	599.668
827.809	606.805
826.77	609.124
825.732	698.103
824.693	652.27
823.654	620.89
822.615	640.049
821.576	651.985
820.537	608.591
819.497	613.312
818.458	651.7
817.418	622.751
816.378	622.66
815.338	629.781
814.298	636.899
813.258	646.418
812.217	636.713
811.176	610.195
810.136	619.713
809.095	583.598
808.054	612.329
807.012	578.626
805.971	566.539
804.929	621.662
803.888	583.173
802.846	585.487
801.804	599.797
800.762	558.929
799.719	566.043
798.677	520.396
797.634	553.889
796.591	577.782
795.548	558.521
794.505	539.266
793.462	551.169
792.419	519.94
791.375	558.195
790.331	500.625
789.288	490.972
788.244	510.058
787.199	555.475
786.155	497.939
785.111	502.653
784.066	528.906
783.021	512.078
781.976	490.471
780.931	507.144
779.886	468.801
778.841	509.388
777.795	511.704
776.75	492.503
775.704	458.965
774.658	487.579
773.612	470.78
772.565	492.215
771.519	420.472
770.472	484.905
769.426	458.563
768.379	456.108
767.332	465.592
766.284	444.038
765.237	446.36
764.189	486.867
763.142	429.526
762.094	448.55
761.046	460.412
759.998	455.575
758.95	419.735
757.901	431.596
756.853	464.912
755.804	400.481
754.755	455.242
753.706	419.428
752.657	426.515
751.607	426.453
750.558	409.716
749.508	402.511
748.458	397.689
747.408	426.204
746.358	428.522
745.308	442.741
744.258	378.417
743.207	366.463
742.156	397.341
741.105	425.83
740.054	382.953
739.003	344.845
737.952	397.108
736.9	420.825
735.849	406.501
734.797	420.702
733.745	380.24
732.693	387.313
731.64	396.76
730.588	391.951
729.535	372.892
728.483	387.086
727.43	436.892
726.377	420.21
725.324	427.27
724.27	377.366
723.217	386.803
722.163	391.492
721.109	410.413
720.055	367.657
719.001	391.32
717.947	400.748
716.892	419.657
715.838	398.26
714.783	414.793
713.728	398.143
712.673	414.672
711.618	416.98
710.563	416.919
709.507	426.332
708.451	407.324
707.396	423.839
706.34	411.94
705.283	392.943
704.227	444.954
703.171	416.492
702.114	432.993
701.057	466.05
700	480.174
698.943	404.423
697.886	439.834
696.829	463.413
695.771	442.069
694.714	442.004
693.656	456.119
692.598	503.312
691.54	498.513
690.481	486.628
689.423	512.538
688.364	503.017
687.305	538.361
686.247	559.531
685.187	575.972
684.128	571.167
683.069	568.724
682.009	580.438
680.95	566.198
679.89	629.803
678.83	587.258
677.77	606.037
676.709	605.948
675.649	620.004
674.588	652.912
673.527	692.881
672.466	615.018
671.405	673.829
670.344	600.704
669.283	624.169
668.221	609.948
667.159	652.242
666.097	638.02
665.035	630.865
663.973	633.126
662.911	658.919
661.848	663.528
660.786	581.09
659.723	651.572
658.66	573.864
657.597	611.405
656.534	604.261
655.47	592.418
654.407	573.527
653.343	632.198
652.279	594.507
651.215	528.635
650.151	608.428
649.086	544.921
648.022	570.674
646.957	575.286
645.892	593.984
644.827	514.085
643.762	528.092
642.697	560.868
641.631	581.903
640.566	548.973
639.5	565.313
638.434	551.157
637.368	567.492
636.302	574.442
635.235	550.915
634.169	557.866
633.102	576.533
632.035	599.881
630.968	527.162
629.901	571.594
628.833	597.274
627.766	543.323
626.698	587.733
625.63	557.21
624.562	608.628
623.494	638.965
622.426	622.49
621.358	650.477
620.289	694.832
619.22	729.817
618.151	659.545
617.082	664.125
616.013	657.013
614.944	654.579
613.874	640.458
612.804	598.296
611.734	600.545
610.664	633.167
609.594	562.992
608.524	548.894
607.453	544.143
606.383	581.424
605.312	515.967
604.241	522.894
603.17	504.145
602.099	536.742
601.027	496.997
599.956	492.258
598.884	534.173
597.812	508.439
596.74	494.373
595.668	456.994
594.595	466.252
593.523	438.212
592.45	452.131
591.377	452.065
590.304	435.689
589.231	416.989
588.158	449.536
587.084	402.893
586.011	461.046
584.937	451.666
583.863	451.599
582.789	437.568
581.714	428.195
580.64	432.786
579.565	414.11
578.491	432.658
577.416	430.269
576.341	453.46
575.265	437.118
574.19	437.053
573.114	441.638
572.039	464.813
570.963	485.658
569.887	485.587
568.811	464.608
567.734	494.735
566.658	564.333
565.581	515.487
564.504	510.768
563.427	506.05
562.35	526.864
561.273	531.428
560.196	600.959
559.118	563.751
558.04	524.234
556.962	607.651
555.884	628.432
554.806	653.844
553.728	607.383
552.649	662.923
551.57	674.413
550.491	773.955
549.412	759.94
548.333	736.662
547.254	789.826
546.174	854.554
545.095	877.584
544.015	895.976
542.935	965.289
541.855	1029.95
540.774	1124.68
539.694	1189.3
538.613	1237.71
537.533	1299.98
536.452	1510.26
535.371	1540.09
534.289	1676.28
533.208	1930.33
532.126	2184.3
531.045	2537.58
529.963	2830.67
528.881	3424.03
527.798	4229.74
526.716	5390.91
525.633	7226.07
524.551	10233.7
523.468	15863.1
522.385	27374.9
521.302	50661.2
520.218	82679.7
519.135	93805.1
518.051	70389
516.967	40392
515.883	22053.1
514.799	13695.2
513.715	9130.35
512.631	6763.76
511.546	4978.72
510.461	4074.57
509.376	3230.6
508.291	2677.18
507.206	2354.28
506.12	2029.17
505.035	1793.98
503.949	1715.42
502.863	1480.34
501.777	1376.54
500.691	1275.07
499.605	1187.43
498.518	1046.9
497.431	1053.65
496.344	1058.09
495.257	970.543
494.17	947.405
493.083	892.084
491.995	917.24
490.908	806.776
489.82	767.588
488.732	815.729
487.644	696.139
486.555	794.814
485.467	721.199
484.378	730.278
483.29	730.17
482.201	677.259
481.112	640.432
480.022	626.566
478.933	628.769
477.843	580.493
476.753	656.112
475.664	619.315
474.574	614.637
473.483	635.184
472.393	573.186
471.302	591.44
470.212	543.219
469.121	527.097
468.03	577.43
466.938	584.217
465.847	517.701
464.756	478.688
463.664	483.197
462.572	565.555
461.48	494.501
460.388	466.96
459.296	485.2
458.203	464.533
457.11	455.313
456.018	487.273
454.925	530.66
453.831	583.182
452.738	626.542
451.645	653.885
450.551	608.069
449.457	649.121
448.363	646.739
447.269	708.337
446.175	694.525
445.08	728.687
443.986	714.875
442.891	767.292
441.796	746.629
440.701	755.651
439.606	757.821
438.51	780.532
437.415	828.337
436.319	919.477
435.223	960.404
434.127	944.295
433.031	953.278
431.935	923.494
430.838	934.757
429.741	923.22
428.645	902.571
427.547	881.927
426.45	884.075
425.353	883.944
424.255	867.869
423.158	913.291
422.06	892.661
420.962	881.144
419.864	867.355
418.765	844.464
417.667	878.477
416.568	921.582
415.469	850.915
414.37	850.789
413.271	855.212
412.172	814.15
411.073	864.054
409.973	836.644
408.873	893.349
407.773	886.398
406.673	863.542
405.573	820.244
404.472	781.501
403.372	820.001
402.271	874.386
401.17	869.715
400.069	860.504
398.968	864.917
397.866	830.742
396.765	853.314
395.663	841.842
394.561	821.298
393.459	884.692
392.357	877.757
391.254	875.359
390.152	811.741
389.049	879.634
387.946	854.569
386.843	877.107
385.74	808.994
384.636	926.693
383.533	906.167
382.429	917.358
381.325	887.78
380.221	912.557
379.117	894.309
378.013	925.869
376.908	894.044
375.803	941.436
374.699	929.983
373.594	934.37
372.488	943.279
371.383	981.589
370.277	881.942
369.172	917.988
368.066	963.066
366.96	906.414
365.854	962.781
364.747	985.235
363.641	962.495
362.534	1003.01
361.427	932.846
360.32	934.966
359.213	1011.6
358.106	997.904
356.998	1024.84
355.891	984.066
354.783	1069.67
353.675	981.517
352.567	994.908
351.459	1046.64
350.35	990.102
349.241	996.72
348.133	1064.21
347.024	1109.14
345.915	1045.86
344.805	1050.22
343.696	1167.23
342.586	1092.71
341.476	1054.25
340.366	1072.12
339.256	1096.73
338.146	1092.06
337.036	1152.69
335.925	1109.75
334.814	1078.07
333.703	1194.93
332.592	1192.5
331.481	1253.07
330.369	1183.15
329.258	1196.47
328.146	1126.58
327.034	1283.8
325.922	1301.59
324.81	1236.22
323.697	1287.72
322.585	1283.04
321.472	1345.75
320.359	1314.1
319.246	1295.94
318.133	1291.26
317.019	1344.95
315.906	1407.61
314.792	1400.67
313.678	1431.88
312.564	1514.7
311.45	1465.11
310.335	1518.73
309.221	1576.82
308.106	1661.81
306.991	1659.32
305.876	1762.21
304.761	1900.93
303.645	2021.68
302.53	2052.75
301.414	2135.35
300.298	2157.43
299.182	2024.95
298.066	1863.4
296.949	1719.8
295.833	1715.07
294.716	1728.25
293.599	1607.12
292.482	1633.74
291.365	1602.17
290.247	1507.96
289.13	1489.84
288.012	1482.91
286.894	1547.54
285.776	1527.19
284.658	1506.84
283.54	1470.85
282.421	1463.92
281.302	1457
280.183	1376.35
279.064	1407.42
277.945	1420.61
276.826	1295.34
275.706	1371.06
274.586	1312.81
273.466	1294.76
272.346	1252.16
271.226	1336.77
270.106	1242.86
268.985	1276.14
267.864	1260.33
266.743	1264.61
265.622	1201.98
264.501	1235.24
263.38	1270.73
262.258	1246.02
261.136	1212.41
260.015	1189.94
258.893	1185.31
257.77	1180.68
256.648	1211.68
255.525	1195.91
254.403	1155.65
253.28	1124.31
252.157	1099.66
251.033	1204.1
249.91	1146.06
248.786	1123.64
247.663	1163.52
246.539	1105.51
245.415	1160.95
244.29	1138.54
243.166	1136.15
242.041	1138.2
240.917	1118.03
239.792	1160.08
238.667	1151.02
237.541	1101.97
236.416	1137.35
235.29	1112.75
234.165	1105.92
233.039	1107.98
231.913	1027.89
230.786	1127.63
229.66	1087.51
228.533	1087.35
227.407	1138.22
226.28	1087.02
225.152	1069.12
224.025	1080.04
222.898	946.838
221.77	933.394
220.642	908.871
219.514	888.787
218.386	846.549
217.258	817.618
216.13	786.48
215.001	808.513
213.872	790.674
212.743	834.845
211.614	797.081
210.485	754.9
209.355	732.653
208.226	759.101
207.096	730.221
205.966	758.874
204.836	789.731
203.706	760.86
202.575	734.208
201.444	767.266
200.314	751.676
199.183	727.248
