3199.22	496.319
3198.51	439.597
3197.81	435.992
3197.1	460.742
3196.4	545.727
3195.69	464.159
3194.98	439.297
3194.28	442.779
3193.57	456.886
3192.87	389.539
3192.16	446.138
3191.45	438.997
3190.75	407.079
3190.04	375.169
3189.34	438.817
3188.63	456.449
3187.92	477.614
3187.22	491.698
3186.51	410.282
3185.8	477.418
3185.09	438.458
3184.39	427.791
3183.68	463.083
3182.97	438.278
3182.27	441.752
3181.56	469.96
3180.85	423.966
3180.14	416.843
3179.44	441.511
3178.73	420.261
3178.02	451.984
3177.31	420.146
3176.6	458.921
3175.89	441.21
3175.19	448.208
3174.48	416.388
3173.77	472.783
3173.06	440.969
3172.35	444.436
3171.64	423.214
3170.93	486.63
3170.23	461.883
3169.52	493.548
3168.81	440.608
3168.1	384.157
3167.39	461.631
3166.68	440.427
3165.97	412.183
3165.26	468.486
3164.55	426.159
3163.84	443.708
3163.13	457.731
3162.42	422.464
3161.71	436.486
3161	457.544
3160.29	450.443
3159.58	415.196
3158.87	401.066
3158.16	418.6
3157.45	439.646
3156.73	464.202
3156.02	428.977
3155.31	467.591
3154.6	442.921
3153.89	428.801
3153.18	481.457
3152.47	407.601
3151.76	435.652
3151.04	421.541
3150.33	474.169
3149.62	488.152
3148.91	474.04
3148.2	435.355
3147.48	438.806
3146.77	442.256
3146.06	459.743
3145.35	466.698
3144.63	435.057
3143.92	438.506
3143.21	466.507
3142.5	476.964
3141.78	494.432
3141.07	438.266
3140.36	466.252
3139.64	466.188
3138.93	445.096
3138.22	480.077
3137.5	480.012
3136.79	441.41
3136.08	427.339
3135.36	434.285
3134.65	472.746
3133.93	441.169
3133.22	437.608
3132.51	469.052
3131.79	444.488
3131.08	426.93
3130.36	412.876
3129.65	391.829
3128.93	433.751
3128.22	472.165
3127.5	461.609
3126.79	454.553
3126.07	419.53
3125.36	433.455
3124.64	422.911
3123.93	464.789
3123.21	450.748
3122.5	464.662
3121.78	394.734
3121.07	475.013
3120.35	440.025
3119.63	425.998
3118.92	443.396
3118.2	474.753
3117.49	394.41
3116.77	471.134
3116.05	446.643
3115.34	471.005
3114.62	432.567
3113.9	453.436
3113.19	460.349
3112.47	474.234
3111.75	509.035
3111.03	481.077
3110.32	460.098
3109.6	501.856
3108.88	428.61
3108.17	418.099
3107.45	435.46
3106.73	431.918
3106.01	480.617
3105.29	438.764
3104.58	483.967
3103.86	396.868
3103.14	431.622
3102.42	442.004
3101.7	480.223
3100.98	445.363
3100.27	445.302
3099.55	400.021
3098.83	417.357
3098.11	462.507
3097.39	465.921
3096.67	465.857
3095.95	458.841
3095.23	507.437
3094.51	458.716
3093.79	486.45
3093.07	448.168
3092.35	482.844
3091.63	416.786
3090.91	447.984
3090.19	496.535
3089.47	454.805
3088.75	489.456
3088.03	433.856
3087.31	444.208
3086.59	464.966
3085.87	461.433
3085.15	478.715
3084.43	509.866
3083.71	461.244
3082.99	485.454
3082.27	422.98
3081.55	447.189
3080.83	485.255
3080.1	505.982
3079.38	412.354
3078.66	394.974
3077.94	405.312
3077.22	450.286
3076.5	419.055
3075.77	398.221
3075.05	488.186
3074.33	418.883
3073.61	418.825
3072.89	512.212
3072.16	439.473
3071.44	518.992
3070.72	442.813
3070	480.801
3069.27	466.901
3068.55	487.586
3067.83	435.655
3067.1	445.967
3066.38	445.906
3065.66	473.494
3064.93	414.683
3064.21	459.544
3063.49	483.664
3062.76	511.232
3062.04	469.717
3061.31	397.133
3060.59	438.513
3059.87	428.096
3059.14	466.008
3058.42	424.527
3057.69	507.292
3056.97	403.708
3056.24	451.953
3055.52	462.24
3054.79	448.38
3054.07	462.113
3053.34	420.673
3052.62	465.435
3051.89	482.607
3051.17	465.307
3050.44	448.012
3049.72	441.06
3048.99	475.452
3048.27	416.825
3047.54	451.212
3046.81	523.472
3046.09	488.966
3045.36	402.825
3044.64	457.85
3043.91	464.671
3043.18	492.14
3042.46	533.365
3041.73	457.599
3041	509.139
3040.28	481.552
3039.55	484.925
3038.82	512.368
3038.1	488.231
3037.37	419.408
3036.64	477.785
3035.91	439.915
3035.19	518.891
3034.46	491.333
3033.73	532.49
3033	422.499
3032.28	491.131
3031.55	467.026
3030.82	456.661
3030.09	501.229
3029.36	494.295
3028.63	466.77
3027.91	490.728
3027.18	521.541
3026.45	459.717
3025.72	490.526
3024.99	538.476
3024.26	469.816
3023.53	480.038
3022.8	473.116
3022.07	558.749
3021.34	479.841
3020.62	452.36
3019.89	383.768
3019.16	520.757
3018.43	489.855
3017.7	465.813
3016.97	479.448
3016.24	499.927
3015.51	486.164
3014.78	489.52
3014.05	513.413
3013.31	468.853
3012.58	441.414
3011.85	564.522
3011.12	489.185
3010.39	489.118
3009.66	485.632
3008.93	530.018
3008.2	485.499
3007.47	495.688
3006.74	481.948
3006	410.112
3005.27	498.901
3004.54	495.416
3003.81	515.846
3003.08	539.685
3002.35	502.044
3001.61	570.271
3000.88	491.663
3000.15	501.837
2999.42	542.729
2998.68	515.352
2997.95	484.569
2997.22	494.739
2996.49	521.963
2995.75	521.892
2995.02	511.588
2994.29	572.901
2993.55	562.593
2992.82	511.378
2992.09	545.395
2991.35	504.422
2990.62	504.353
2989.89	528.135
2989.15	459.925
2988.42	534.803
2987.68	507.482
2986.95	561.9
2986.22	466.484
2985.48	534.51
2984.75	582.094
2984.01	479.906
2983.28	626.175
2982.54	506.996
2981.81	506.927
2981.07	561.285
2980.34	527.195
2979.6	533.925
2978.87	544.053
2978.13	557.578
2977.4	564.3
2976.66	499.643
2975.93	540.356
2975.19	560.67
2974.45	506.233
2973.72	611.473
2972.98	536.664
2972.25	590.928
2971.51	560.286
2970.77	570.395
2970.04	577.107
2969.3	593.999
2968.56	563.373
2967.83	573.476
2967.09	566.612
2966.35	573.319
2965.62	569.849
2964.88	542.639
2964.14	647.686
2963.4	579.786
2962.67	610.218
2961.93	603.355
2961.19	674.445
2960.45	599.801
2959.72	626.825
2958.98	647.065
2958.24	653.751
2957.5	572.377
2956.76	568.913
2956.03	616.238
2955.29	663.55
2954.55	680.384
2953.81	666.752
2953.07	659.893
2952.33	619.199
2951.59	639.413
2950.85	595.351
2950.12	635.856
2949.38	605.333
2948.64	591.725
2947.9	618.69
2947.16	669.311
2946.42	659.08
2945.68	598.159
2944.94	662.278
2944.2	685.837
2943.46	695.877
2942.72	662.006
2941.98	668.669
2941.24	712.474
2940.5	668.486
2939.76	661.643
2939.02	664.927
2938.28	701.959
2937.53	698.489
2936.79	681.524
2936.05	725.285
2935.31	647.607
2934.57	792.536
2933.83	667.662
2933.09	674.314
2932.35	738.272
2931.6	687.611
2930.86	741.44
2930.12	734.599
2929.38	690.698
2928.64	724.291
2927.89	714.087
2927.15	737.564
2926.41	690.319
2925.67	720.527
2924.92	659.832
2924.18	700.133
2923.44	730.328
2922.7	666.29
2921.95	753.68
2921.21	632.466
2920.47	743.382
2919.72	726.464
2918.98	665.834
2918.24	625.395
2917.49	655.566
2916.75	722.704
2916	739.41
2915.26	715.785
2914.52	719.047
2913.77	648.397
2913.03	671.822
2912.28	641.502
2911.54	638.056
2910.79	648.042
2910.05	668.097
2909.31	711.644
2908.56	735.04
2907.82	704.737
2907.07	644.242
2906.33	721.318
2905.58	674.256
2904.83	724.474
2904.09	660.657
2903.34	623.682
2902.6	707.413
2901.85	697.259
2901.11	666.998
2900.36	760.743
2899.61	660.114
2898.87	603.067
2898.12	673.332
2897.38	656.493
2896.63	622.913
2895.88	683.101
2895.14	636.134
2894.39	699.651
2893.64	692.861
2892.89	649.259
2892.15	709.402
2891.4	635.698
2890.65	689.136
2889.91	625.489
2889.16	598.648
2888.41	618.63
2887.66	698.788
2886.92	638.518
2886.17	635.088
2885.42	671.764
2884.67	675.013
2883.92	664.897
2883.17	668.147
2882.43	704.798
2881.68	624.546
2880.93	654.514
2880.18	601.002
2879.43	607.597
2878.68	680.949
2877.93	644.143
2877.18	674.088
2876.43	630.62
2875.69	617.188
2874.94	717.175
2874.19	587.002
2873.44	650.282
2872.69	616.85
2871.94	563.423
2871.19	643.348
2870.44	706.586
2869.69	676.496
2868.94	633.087
2868.19	666.316
2867.44	669.556
2866.68	629.496
2865.93	652.721
2865.18	652.631
2864.43	645.883
2863.68	652.452
2862.93	642.377
2862.18	665.585
2861.43	655.511
2860.68	612.17
2859.92	671.964
2859.17	648.589
2858.42	648.5
2857.67	684.988
2856.92	608.425
2856.17	671.503
2855.41	641.496
2854.66	651.378
2853.91	647.966
2853.16	661.167
2852.4	684.33
2851.65	634.413
2850.9	670.858
2850.15	667.445
2849.39	657.393
2848.64	663.942
2847.89	703.682
2847.13	653.804
2846.38	653.714
2845.63	593.902
2844.87	666.804
2844.12	673.347
2843.37	666.621
2842.61	683.11
2841.86	683.016
2841.1	699.498
2840.35	715.976
2839.59	613.136
2838.84	676.014
2838.09	656.041
2837.33	692.392
2836.58	705.547
2835.82	649.147
2835.07	672.238
2834.31	721.812
2833.56	744.887
2832.8	655.411
2832.05	704.966
2831.29	678.395
2830.53	731.243
2829.78	681.517
2829.02	697.963
2828.27	684.638
2827.51	704.385
2826.76	697.676
2826	644.683
2825.24	710.707
2824.49	703.999
2823.73	690.683
2822.97	703.805
2822.22	690.493
2821.46	706.915
2820.7	660.578
2819.95	759.56
2819.19	663.698
2818.43	683.416
2817.67	759.247
2816.92	732.738
2816.16	712.836
2815.4	729.237
2814.64	762.129
2813.89	748.83
2813.13	745.428
2812.37	751.922
2811.61	718.844
2810.85	797.873
2810.1	787.874
2809.34	692.179
2808.58	744.814
2807.82	757.893
2807.06	817.094
2806.3	800.51
2805.54	727.936
2804.78	787.117
2804.02	714.564
2803.27	767.146
2802.51	753.872
2801.75	720.853
2800.99	806.323
2800.23	895.06
2799.47	799.521
2798.71	776.383
2797.95	792.723
2797.19	878.124
2796.43	759.621
2795.67	798.972
2794.91	742.974
2794.15	795.465
2793.38	798.642
2792.62	795.247
2791.86	798.423
2791.1	818.025
2790.34	798.203
2789.58	896.624
2788.82	761.861
2788.06	873.393
2787.3	817.463
2786.53	856.741
2785.77	896.008
2785.01	846.66
2784.25	889.199
2783.49	862.831
2782.72	941.439
2781.96	908.512
2781.2	839.52
2780.44	875.473
2779.67	911.416
2778.91	937.515
2778.15	924.275
2777.39	933.98
2776.62	865.041
2775.86	953.38
2775.1	992.559
2774.33	966.22
2773.57	952.987
2772.81	979.052
2772.04	988.739
2771.28	968.962
2770.52	1014.65
2769.75	998.149
2768.99	1040.55
2768.22	1069.85
2767.46	981.381
2766.7	1085.91
2765.93	1151.17
2765.17	1111.77
2764.4	1069.12
2763.64	1170.31
2762.87	1121.12
2762.11	1071.94
2761.34	1169.83
2760.58	1208.87
2759.81	1257.71
2759.05	1146.48
2758.28	1185.51
2757.52	1231.07
2756.75	1230.9
2755.98	1250.31
2755.22	1276.26
2754.45	1259.76
2753.69	1269.38
2752.92	1305.09
2752.15	1337.54
2751.39	1321.04
2750.62	1448.06
2749.85	1516.34
2749.09	1555.25
2748.32	1450.72
2747.55	1593.94
2746.79	1636.09
2746.02	1622.83
2745.25	1619.35
2744.48	1599.58
2743.72	1775.26
2742.95	1758.73
2742.18	1807.33
2741.41	1904.77
2740.65	1927.29
2739.88	1966.09
2739.11	2079.73
2738.34	2053.41
2737.57	2150.74
2736.8	2101.65
2736.04	2241.23
2735.27	2224.66
2734.5	2367.44
2733.73	2217.55
2732.96	2600.87
2732.19	2551.75
2731.42	2639.16
2730.65	2736.28
2729.88	2752.15
2729.11	2836.25
2728.34	2897.58
2727.57	2919.91
2726.8	2971.47
2726.03	3182.12
2725.26	3204.41
2724.49	3324.08
2723.72	3261.95
2722.95	3449.73
2722.18	3403.83
2721.41	3416.33
2720.64	3545.62
2719.87	3564.6
2719.1	3810.58
2718.33	3784.11
2717.56	3877.61
2716.79	3906.25
2716.02	3876.55
2715.24	3979.72
2714.47	4053.7
2713.7	4036.94
2712.93	4246.95
2712.16	4210.74
2711.39	4346.18
2710.61	4316.44
2709.84	4377.36
2709.07	4227.84
2708.3	4366.44
2707.52	4310.82
2706.75	4391.13
2705.98	4335.52
2705.21	4571.08
2704.43	4683.66
2703.66	4453.39
2702.89	4666.2
2702.11	4604.13
2701.34	4626.13
2700.57	4502.66
2699.79	4599
2699.02	4540.2
2698.25	4578.34
2697.47	4774.78
2696.7	4741.82
2695.92	4644.28
2695.15	4591.97
2694.38	4707.57
2693.6	4687.56
2692.83	4748.24
2692.05	4537.8
2691.28	4553.31
2690.5	4675.29
2689.73	4629.48
2688.95	4477.24
2688.18	4608.86
2687.4	4733.99
2686.63	4630.16
2685.85	4571.49
2685.08	4738.48
2684.3	4628.25
2683.53	4524.49
2682.75	4520.64
2681.97	4587.67
2681.2	4454.97
2680.42	4435.03
2679.64	4469.85
2678.87	4459.57
2678.09	4520.13
2677.32	4242.67
2676.54	4386.92
2675.76	4235.06
2674.98	4273.09
2674.21	4150.25
2673.43	4165.76
2672.65	4245.6
2671.88	4052.06
2671.1	4086.87
2670.32	3951.27
2669.54	3912.15
2668.77	3866.62
2667.99	3891.79
2667.21	3933.03
2666.43	3922.85
2665.65	3707.08
2664.87	3777.23
2664.1	3812.04
2663.32	3551.42
2662.54	3586.25
2661.76	3550.44
2660.98	3334.9
2660.2	3234.95
2659.42	3321.14
2658.64	3272.56
2657.86	3182.29
2657.09	3213.92
2656.31	3136.51
2655.53	3126.46
2654.75	2965.72
2653.97	3074.31
2653.19	3115.55
2652.41	2948.47
2651.63	2896.79
2650.85	2832.31
2650.07	2921.62
2649.28	2668.18
2648.5	2773.49
2647.72	2718.68
2646.94	2571.02
2646.16	2554.66
2645.38	2531.9
2644.6	2595.56
2643.82	2380.8
2643.04	2482.86
2642.26	2415.34
2641.47	2475.78
2640.69	2360.3
2639.91	2379.16
2639.13	2215.77
2638.35	2234.64
2637.56	2269.5
2636.78	2102.99
2636	2204.96
2635.22	2163.12
2634.44	2134.07
2633.65	2053.92
2632.87	1992.95
2632.09	1999.06
2631.3	2021.14
2630.52	1995.32
2629.74	1969.51
2628.95	1841.57
2628.17	1905.14
2627.39	1876.16
2626.6	1856.76
2625.82	1869.26
2625.04	1770.13
2624.25	1760.32
2623.47	1782.4
2622.68	1747.08
2621.9	1746.84
2621.12	1676.48
2620.33	1596.58
2619.55	1618.67
2618.76	1612.07
2617.98	1589.55
2617.19	1598.89
2616.41	1605.04
2615.62	1496.55
2614.84	1496.35
2614.05	1547.07
2613.27	1553.23
2612.48	1514.82
2611.69	1466.88
2610.91	1396.69
2610.12	1495.11
2609.34	1396.3
2608.55	1357.95
2607.76	1395.92
2606.98	1319.42
2606.19	1341.49
2605.4	1255.49
2604.62	1271.2
2603.83	1245.61
2603.04	1286.74
2602.26	1257.97
2601.47	1273.68
2600.68	1238.57
2599.9	1235.22
2599.11	1174.73
2598.32	1149.17
2597.53	1158.53
2596.75	1234.54
2595.96	1186.77
2595.17	1177.09
2594.38	1135.69
2593.59	1122.85
2592.81	1059.26
2592.02	1078.14
2591.23	1135.06
2590.44	1112.71
2589.65	1068.19
2588.86	1068.04
2588.07	1109.09
2587.28	1064.58
2586.5	1048.59
2585.71	1013.6
2584.92	1057.8
2584.13	1016.49
2583.34	1035.34
2582.55	1057.36
2581.76	978.083
2580.97	1031.75
2580.18	1009.46
2579.39	955.53
2578.6	920.599
2577.81	917.309
2577.02	980.436
2576.23	932.867
2575.44	958.033
2574.64	923.125
2573.85	957.768
2573.06	938.673
2572.27	903.782
2571.48	935.254
2570.69	849.826
2569.9	881.297
2569.11	906.442
2568.31	893.685
2567.52	896.719
2566.73	937.637
2565.94	924.881
2565.15	849.005
2564.35	820.487
2563.56	902.411
2562.77	832.879
2561.98	876.926
2561.18	794.802
2560.39	813.613
2559.6	810.348
2558.81	800.778
2558.01	854.255
2557.22	879.352
2556.43	872.927
2555.63	784.581
2554.84	838.031
2554.05	793.814
2553.25	903.941
2552.46	796.744
2551.66	828.122
2550.87	799.672
2550.08	840.484
2549.28	796.304
2548.49	796.194
2547.69	792.937
2546.9	786.536
2546.1	808.447
2545.31	842.933
2544.51	798.789
2543.72	861.567
2542.92	782.848
2542.13	767.023
2541.33	842.351
2540.54	823.379
2539.74	835.834
2538.95	763.457
2538.15	801.048
2537.35	794.655
2536.56	797.686
2535.76	766.175
2534.97	794.326
2534.17	753.407
2533.37	790.968
2532.58	718.677
2531.78	765.646
2530.98	768.678
2530.19	825.038
2529.39	759.055
2528.59	780.904
2527.79	834.103
2527	812.041
2526.2	821.333
2525.4	702.111
2524.6	752.158
2523.81	736.386
2523.01	736.285
2522.21	792.571
2521.41	786.197
2520.61	786.089
2519.82	792.243
2519.02	826.574
2518.22	729.413
2517.42	776.264
2516.62	769.897
2515.82	794.824
2515.02	772.813
2514.22	735.166
2513.42	744.448
2512.63	819.405
2511.83	809.91
2511.03	697.24
2510.23	787.803
2509.43	747.059
2508.63	750.081
2507.83	774.977
2507.03	759.247
2506.23	749.77
2505.43	812.139
2504.63	808.903
2503.83	780.686
2503.02	711.888
2502.22	752.374
2501.42	733.541
2500.62	767.771
2499.82	770.785
2499.02	730.116
2498.22	776.811
2497.42	767.346
2496.61	736.051
2495.81	726.594
2495.01	760.792
2494.21	763.804
2493.41	751.23
2492.61	785.41
2491.8	763.487
2491	853.741
2490.2	732.122
2489.4	738.25
2488.59	812.897
2487.79	825.241
2486.99	793.99
2486.18	756.521
2485.38	840.463
2484.58	837.234
2483.77	824.671
2482.97	765.437
2482.17	824.443
2481.36	783.89
2480.56	830.435
2479.76	814.771
2478.95	851.971
2478.15	746.148
2477.34	829.975
2476.54	804.996
2475.73	811.1
2474.93	848.274
2474.13	841.943
2473.32	860.465
2472.52	878.981
2471.71	863.332
2470.91	847.687
2470.1	866.198
2469.3	881.599
2468.49	853.543
2467.68	828.598
2466.88	884.336
2466.07	831.471
2465.27	818.948
2464.46	883.969
2463.65	902.454
2462.85	862.019
2462.04	911.505
2461.24	895.879
2460.43	936.049
2459.62	945.216
2458.82	923.395
2458.01	873.696
2457.2	935.53
2456.39	938.498
2455.59	907.399
2454.78	959.914
2453.97	987.646
2453.16	968.935
2452.36	903.801
2451.55	891.297
2450.74	888.079
2449.93	931.271
2449.13	915.675
2448.32	896.99
2447.51	977.274
2446.7	961.678
2445.89	881.158
2445.08	918.132
2444.27	979.824
2443.46	924.059
2442.66	948.652
2441.85	945.431
2441.04	914.408
2440.23	923.547
2439.42	923.419
2438.61	904.764
2437.8	938.601
2436.99	935.384
2436.18	925.994
2435.37	913.521
2434.56	1012.14
2433.75	891.671
2432.94	848.358
2432.13	860.579
2431.32	808.03
2430.51	968.268
2429.7	869.471
2428.88	934.089
2428.07	872.312
2427.26	887.601
2426.45	853.581
2425.64	884.274
2424.83	828.699
2424.02	813.183
2423.21	816.15
2422.39	825.276
2421.58	855.951
2420.77	800.419
2419.96	778.761
2419.14	809.43
2418.33	797.009
2417.52	796.898
2416.71	772.177
2415.89	756.69
2415.08	787.34
2414.27	716.503
2413.46	768.674
2412.64	743.973
2411.83	765.387
2411.02	734.547
2410.2	682.204
2409.39	694.4
2408.57	697.376
2407.76	694.207
2406.95	635.756
2406.13	721.652
2405.32	684.707
2404.5	650.842
2403.69	629.265
2402.88	681.353
2402.06	681.259
2401.25	650.481
2400.43	625.848
2399.62	680.976
2398.8	641.01
2397.99	604.122
2397.17	683.758
2396.35	616.217
2395.54	640.654
2394.72	665.085
2393.91	655.799
2393.09	591.363
2392.28	655.617
2391.46	569.756
2390.64	627.87
2389.83	575.723
2389.01	664.439
2388.19	596.994
2387.38	612.217
2386.56	596.828
2385.74	630.408
2384.93	599.723
2384.11	617.996
2383.29	636.264
2382.47	639.234
2381.66	614.681
2380.84	599.307
2380.02	638.968
2379.2	620.538
2378.39	580.719
2377.57	629.534
2376.75	553.058
2375.93	650.746
2375.11	620.108
2374.29	558.936
2373.48	598.559
2372.66	552.674
2371.84	635.029
2371.02	576.942
2370.2	604.331
2369.38	549.316
2368.56	558.394
2367.74	558.316
2366.92	509.431
2366.1	570.361
2365.28	567.233
2364.46	530.563
2363.64	557.929
2362.82	597.48
2362	609.589
2361.18	554.649
2360.36	563.713
2359.54	511.842
2358.72	539.187
2357.9	572.616
2357.08	566.446
2356.26	639.447
2355.44	575.422
2354.62	569.254
2353.79	569.175
2352.97	538.663
2352.15	584.231
2351.33	593.278
2350.51	584.069
2349.69	559.655
2348.86	574.783
2348.04	577.744
2347.22	571.584
2346.4	574.544
2345.57	574.464
2344.75	574.385
2343.93	574.305
2343.11	540.805
2342.28	595.41
2341.46	598.365
2340.64	567.912
2339.81	567.833
2338.99	549.538
2338.17	570.711
2337.34	561.526
2336.52	534.134
2335.7	543.163
2334.87	573.428
2334.05	570.315
2333.22	585.402
2332.4	664.172
2331.57	685.306
2330.75	682.179
2329.93	666.926
2329.1	603.182
2328.28	597.036
2327.45	566.651
2326.63	536.275
2325.8	569.523
2324.97	566.415
2324.15	590.565
2323.32	584.427
2322.5	557.096
2321.67	656.919
2320.85	572.076
2320.02	596.208
2319.19	535.604
2318.37	556.709
2317.54	532.43
2316.71	559.579
2315.89	535.307
2315.06	547.328
2314.23	577.487
2313.41	550.199
2312.58	577.326
2311.75	544.002
2310.93	586.231
2310.1	543.85
2309.27	528.67
2308.44	510.473
2307.62	564.765
2306.79	576.765
2305.96	555.55
2305.13	597.737
2304.3	588.598
2303.47	546.264
2302.65	567.311
2301.82	546.112
2300.99	576.204
2300.16	564.059
2299.33	570.012
2298.5	554.855
2297.67	557.793
2296.84	545.657
2296.01	551.61
2295.19	527.422
2294.36	548.443
2293.53	566.445
2292.7	482.013
2291.87	551.226
2291.04	508.985
2290.21	569.141
2289.38	578.094
2288.54	565.972
2287.71	529.773
2286.88	562.805
2286.05	556.708
2285.22	562.649
2284.39	517.444
2283.56	517.372
2282.73	589.482
2281.9	553.314
2281.07	562.257
2280.23	514.078
2279.4	586.148
2278.57	492.897
2277.74	495.834
2276.91	510.788
2276.07	585.822
2275.24	537.68
2274.41	555.625
2273.58	516.509
2272.74	525.445
2271.91	519.368
2271.08	516.294
2270.25	519.223
2269.41	555.162
2268.58	537.082
2267.75	552.007
2266.91	542.931
2266.08	524.861
2265.25	569.77
2264.41	542.705
2263.58	536.633
2262.74	545.551
2261.91	509.51
2261.08	563.38
2260.24	524.35
2259.41	509.297
2258.57	503.236
2257.74	557.076
2256.9	565.983
2256.07	509.014
2255.23	559.837
2254.4	514.859
2253.56	496.83
2252.73	571.574
2251.89	505.668
2251.06	523.547
2250.22	532.448
2249.38	460.594
2248.55	457.539
2247.71	511.296
2246.88	526.173
2246.04	523.11
2245.2	540.97
2244.37	576.755
2243.53	516.916
2242.69	540.744
2241.86	516.772
2241.02	540.594
2240.18	504.683
2239.34	504.613
2238.51	540.368
2237.67	555.218
2236.83	486.494
2235.99	575.953
2235.16	566.921
2234.32	542.975
2233.48	536.934
2232.64	512.999
2231.8	572.57
2230.97	486.02
2230.13	509.803
2229.29	539.541
2228.45	527.544
2227.61	572.171
2226.77	566.132
2225.93	500.51
2225.09	530.229
2224.25	565.896
2223.41	562.839
2222.57	568.716
2221.73	553.751
2220.89	550.697
2220.05	523.833
2219.21	595.182
2218.37	565.344
2217.53	577.166
2216.69	532.465
2215.85	568.082
2215.01	508.526
2214.17	520.349
2213.33	529.195
2212.49	579.656
2211.65	612.269
2210.81	552.748
2209.97	555.643
2209.12	564.478
2208.28	519.842
2207.44	537.59
2206.6	525.636
2205.76	555.256
2204.92	513.614
2204.07	602.596
2203.23	537.215
2202.39	560.881
2201.55	593.443
2200.7	569.625
2199.86	542.849
2199.02	545.739
2198.17	527.869
2197.33	530.761
2196.49	536.616
2195.64	554.328
2194.8	583.889
2193.96	571.954
2193.11	542.243
2192.27	551.056
2191.43	488.772
2190.58	586.444
2189.74	500.481
2188.89	547.788
2188.05	532.908
2187.2	532.834
2186.36	574.196
2185.52	503.092
2184.67	511.898
2183.83	544.371
2182.98	544.295
2182.14	520.557
2181.29	567.802
2180.44	520.412
2179.6	543.991
2178.75	543.916
2177.91	585.219
2177.06	555.585
2176.22	511.185
2175.37	555.43
2174.52	534.674
2173.68	561.182
2172.83	587.682
2171.98	561.025
2171.14	543.233
2170.29	525.446
2169.44	578.5
2168.6	510.543
2167.75	566.536
2166.9	566.457
2166.05	560.478
2165.21	557.45
2164.36	530.831
2163.51	530.757
2162.66	495.304
2161.81	568.93
2160.97	595.378
2160.12	565.825
2159.27	503.867
2158.42	536.205
2157.57	571.479
2156.72	574.345
2155.87	606.659
2155.02	553.573
2154.18	524.054
2153.33	553.418
2152.48	503.305
2151.63	520.892
2150.78	535.532
2149.93	550.167
2149.08	579.507
2148.23	544.131
2147.38	541.114
2146.53	614.55
2145.68	549.783
2144.83	487.975
2143.98	505.542
2143.13	490.777
2142.28	590.614
2141.42	584.655
2140.57	537.573
2139.72	537.498
2138.87	478.688
2138.02	519.73
2137.17	507.913
2136.32	590.037
2135.46	516.577
2134.61	478.354
2133.76	575.118
2132.91	513.427
2132.06	601.359
2131.2	507.417
2130.35	571.864
2129.5	539.53
2128.65	559.977
2127.79	554.036
2126.94	504.132
2126.09	562.673
2125.23	571.385
2124.38	509.78
2123.53	556.579
2122.67	506.709
2121.82	521.281
2120.97	532.92
2120.11	541.629
2119.26	506.426
2118.4	623.431
2117.55	558.961
2116.7	506.213
2115.84	564.656
2114.99	576.279
2114.13	526.475
2113.28	593.664
2112.42	596.505
2111.57	523.331
2110.71	546.644
2109.86	499.802
2109	511.422
2108.15	563.947
2107.29	581.397
2106.43	552.104
2105.58	601.68
2104.72	572.393
2103.87	528.513
2103.01	519.681
2102.15	513.77
2101.3	551.641
2100.44	528.218
2099.58	548.569
2098.73	528.07
2097.87	551.333
2097.01	548.339
2096.15	510.351
2095.3	583.177
2094.44	565.602
2093.58	527.627
2092.72	606.249
2091.87	536.222
2091.01	574.027
2090.15	547.726
2089.29	515.606
2088.43	518.447
2087.58	553.321
2086.72	541.596
2085.86	558.989
2085	544.356
2084.14	529.727
2083.28	587.856
2082.42	579.045
2081.56	549.87
2080.7	555.611
2079.84	596.253
2078.98	584.537
2078.12	564.101
2077.26	581.466
2076.4	505.805
2075.54	558.051
2074.68	584.128
2073.82	543.367
2072.96	543.291
2072.1	589.693
2071.24	586.706
2070.38	545.967
2069.52	548.794
2068.66	621.299
2067.8	554.446
2066.94	539.857
2066.07	533.977
2065.21	551.312
2064.35	568.642
2063.49	525.05
2062.63	562.682
2061.77	571.304
2060.9	548.027
2060.04	556.648
2059.18	576.861
2058.32	562.289
2057.45	568.006
2056.59	605.595
2055.73	562.053
2054.86	602.529
2054	599.548
2053.14	599.464
2052.28	553.051
2051.41	558.764
2050.55	567.37
2049.68	544.136
2048.82	552.742
2047.96	610.535
2047.09	610.449
2046.23	538.046
2045.36	566.894
2044.5	563.923
2043.63	641.914
2042.77	598.458
2041.91	581.03
2041.04	598.29
2040.17	566.418
2039.31	606.791
2038.44	624.041
2037.58	574.846
2036.71	592.095
2035.85	620.891
2034.98	606.366
2034.12	620.717
2033.25	588.877
2032.38	580.135
2031.52	562.739
2030.65	611.713
2029.78	571.237
2028.92	602.887
2028.05	559.54
2027.18	556.577
2026.32	576.683
2025.45	614.082
2024.58	564.991
2023.72	651.378
2022.85	585.006
2021.98	639.67
2021.11	593.485
2020.24	607.805
2019.38	599.079
2018.51	587.476
2017.64	596.032
2016.77	578.674
2015.9	627.529
2015.03	587.147
2014.17	618.72
2013.3	595.614
2012.43	609.915
2011.56	529.286
2010.69	618.373
2009.82	592.405
2008.95	595.197
2008.08	572.114
2007.21	549.037
2006.34	629.436
2005.47	591.989
2004.6	600.526
2003.73	548.73
2002.86	563.015
2001.99	548.576
2001.12	591.575
2000.25	559.907
1999.38	620.118
1998.51	594.196
1997.64	645.775
1996.77	594.03
1995.89	548.038
1995.02	611.077
1994.15	610.991
1993.28	613.773
1992.41	573.54
1991.54	584.928
1990.66	593.447
1989.79	613.429
1988.92	535.959
1988.05	581.735
1987.17	604.575
1986.3	567.247
1985.43	590.083
1984.56	584.272
1983.68	589.918
1982.81	549.749
1981.94	606.929
1981.06	638.332
1980.19	578.139
1979.32	586.642
1978.44	592.283
1977.57	617.947
1976.7	589.256
1975.82	606.334
1974.95	603.389
1974.07	646.193
1973.2	546.042
1972.32	594.56
1971.45	637.347
1970.57	634.4
1969.7	600.024
1968.82	585.655
1967.95	599.856
1967.07	665.461
1966.2	593.976
1965.32	605.314
1964.45	590.954
1963.57	585.162
1962.69	582.226
1961.82	593.559
1960.94	630.568
1960.07	581.981
1959.19	564.785
1958.31	567.558
1957.44	621.659
1956.56	601.613
1955.68	581.573
1954.81	538.734
1953.93	564.309
1953.05	635.471
1952.17	589.794
1951.3	569.769
1950.42	603.871
1949.54	643.659
1948.66	592.311
1947.78	674.798
1946.91	603.532
1946.03	600.6
1945.15	603.362
1944.27	594.74
1943.39	631.645
1942.51	608.798
1941.64	614.401
1940.76	676.884
1939.88	639.821
1939	577.18
1938.12	639.642
1937.24	619.655
1936.36	582.621
1935.48	633.689
1934.6	596.663
1933.72	622.147
1932.84	653.305
1931.96	639.013
1931.08	633.244
1930.2	576.37
1929.32	601.838
1928.44	644.331
1927.56	641.402
1926.67	638.474
1925.79	607.175
1924.91	624.111
1924.03	578.639
1923.15	589.902
1922.27	601.162
1921.39	601.078
1920.5	643.516
1919.62	552.723
1918.74	595.156
1917.86	563.902
1916.98	637.488
1916.09	594.905
1915.21	603.319
1914.33	606.066
1913.44	586.159
1912.56	628.546
1911.68	566.178
1910.8	642.522
1909.91	580.17
1909.03	614.045
1908.14	642.251
1907.26	596.898
1906.38	616.614
1905.49	571.278
1904.61	610.785
1903.73	588.081
1902.84	621.921
1901.96	596.395
1901.07	652.834
1900.19	601.879
1899.3	635.698
1898.42	621.484
1897.53	542.31
1896.65	612.837
1895.76	612.751
1894.88	601.371
1893.99	626.693
1893.1	657.653
1892.22	623.695
1891.33	668.755
1890.45	612.234
1889.56	609.327
1888.67	583.856
1887.79	676.839
1886.9	586.511
1886.01	603.345
1885.13	597.622
1884.24	600.357
1883.35	580.545
1882.47	670.633
1881.58	602.921
1880.69	633.823
1879.8	571.769
1878.92	574.504
1878.03	580.055
1877.14	625.02
1876.25	630.562
1875.36	644.546
1874.48	596.614
1873.59	621.854
1872.7	604.886
1871.81	593.549
1870.92	582.215
1870.03	629.941
1869.14	624.229
1868.25	562.289
1867.36	579.076
1866.47	643.64
1865.59	607.016
1864.7	578.832
1863.81	626.511
1862.92	640.468
1862.03	640.378
1861.14	617.822
1860.24	643.006
1859.35	567.113
1858.46	684.931
1857.57	611.861
1856.68	623
1855.79	558.376
1854.9	636.852
1854.01	586.27
1853.12	636.672
1852.23	569.279
1851.33	580.414
1850.44	650.421
1849.55	650.33
1848.66	610.999
1847.77	627.728
1846.87	627.639
1845.98	641.559
1845.09	641.468
1844.2	616.171
1843.3	616.084
1842.41	618.797
1841.52	638.307
1840.63	621.422
1839.73	635.329
1838.84	601.658
1837.95	623.957
1837.05	579.108
1836.16	660.146
1835.26	623.694
1834.37	640.385
1833.48	637.498
1832.58	659.774
1831.69	603.776
1830.79	606.485
1829.9	564.483
1829	617.491
1828.11	603.435
1827.21	648.043
1826.32	575.336
1825.42	622.728
1824.53	636.6
1823.63	575.093
1822.74	633.63
1821.84	633.54
1820.95	605.546
1820.05	630.572
1819.15	636.062
1818.26	669.445
1817.36	644.25
1816.46	621.85
1815.57	588.305
1814.67	657.916
1813.77	549.115
1812.88	638.222
1811.98	665.998
1811.08	649.187
1810.18	604.522
1809.29	632.291
1808.39	626.632
1807.49	690.59
1806.59	556.849
1805.7	629.15
1804.8	637.412
1803.9	623.407
1803	617.754
1802.1	687.224
1801.2	623.143
1800.3	642.526
1799.41	639.654
1798.51	634.002
1797.61	594.988
1796.71	622.704
1795.81	633.734
1794.91	625.307
1794.01	608.547
1793.11	641.801
1792.21	605.597
1791.31	619.399
1790.41	647.084
1789.51	641.439
1788.61	613.584
1787.71	671.794
1786.81	710.558
1785.91	685.48
1785.01	660.41
1784.1	657.543
1783.2	665.772
1782.3	685.094
1781.4	648.944
1780.5	665.49
1779.6	637.671
1778.7	645.898
1777.79	670.752
1776.89	676.2
1775.99	684.417
1775.09	662.156
1774.18	637.131
1773.28	667.509
1772.38	659.106
1771.48	636.862
1770.57	703.217
1769.67	650.523
1768.77	625.521
1767.86	639.269
1766.96	605.975
1766.06	727.621
1765.15	674.96
1764.25	633.377
1763.34	630.522
1762.44	702.324
1761.54	688.402
1760.63	671.719
1759.73	674.388
1758.82	696.401
1757.92	682.487
1757.01	721.068
1756.11	643.621
1755.2	657.34
1754.3	687.624
1753.39	695.811
1752.49	698.473
1751.58	679.052
1750.68	728.635
1749.77	695.417
1748.86	653.931
1747.96	761.432
1747.05	678.572
1746.14	700.541
1745.24	747.321
1744.33	716.886
1743.42	752.624
1742.52	747.005
1741.61	653.192
1740.7	710.97
1739.8	776.996
1738.89	696.994
1737.98	732.704
1737.07	740.863
1736.16	746.266
1735.26	751.667
1734.35	663.466
1733.44	734.939
1732.53	787.127
1731.62	737.483
1730.72	778.65
1729.81	731.773
1728.9	783.931
1727.99	759.068
1727.08	709.464
1726.17	789.098
1725.26	728.507
1724.35	739.398
1723.44	786.015
1722.53	788.652
1721.62	794.035
1720.71	785.682
1719.8	752.609
1718.89	757.996
1717.98	757.889
1717.07	763.273
1716.16	746.693
1715.25	809.718
1714.34	784.904
1713.43	787.537
1712.52	727.066
1711.6	735.192
1710.69	798.174
1709.78	737.727
1708.87	797.949
1707.96	756.71
1707.05	759.344
1706.13	734.569
1705.22	742.686
1704.31	761.762
1703.4	750.695
1702.48	761.547
1701.57	761.439
1700.66	802.41
1699.75	698.245
1698.83	774.805
1697.92	763.746
1697.01	763.637
1696.09	793.633
1695.18	812.674
1694.26	755.106
1693.35	763.205
1692.44	801.389
1691.52	738.377
1690.61	765.616
1689.69	757.305
1688.78	822.804
1687.86	828.154
1686.95	781.579
1686.03	797.863
1685.12	773.162
1684.2	803.1
1683.29	846.686
1682.37	789.218
1681.46	800.029
1680.54	813.566
1679.63	780.694
1678.71	914.32
1677.79	788.66
1676.88	807.648
1675.96	763.883
1675.05	777.414
1674.13	788.213
1673.21	826.279
1672.3	828.889
1671.38	820.593
1670.46	891.348
1669.54	861.242
1668.63	847.495
1667.71	809.229
1666.79	849.979
1665.87	866.202
1664.96	866.079
1664.04	806.048
1663.12	884.893
1662.2	898.38
1661.28	865.589
1660.36	895.404
1659.44	919.768
1658.53	878.825
1657.61	919.507
1656.69	922.097
1655.77	873.012
1654.85	881.046
1653.93	897.235
1653.01	962.352
1652.09	973.088
1651.17	951.208
1650.25	932.052
1649.33	923.769
1648.41	983.403
1647.49	996.844
1646.57	1010.28
1645.65	1026.43
1644.73	1001.85
1643.81	1050.57
1642.89	1031.42
1641.96	1071.99
1641.04	1158.67
1640.12	1077.11
1639.2	1095.94
1638.28	1060.53
1637.36	1103.77
1636.43	1090.05
1635.51	1138.7
1634.59	1252.39
1633.67	1141.09
1632.75	1168.03
1631.82	1208.51
1630.9	1273.36
1629.98	1321.94
1629.05	1340.71
1628.13	1397.39
1627.21	1448.64
1626.28	1521.53
1625.36	1515.9
1624.44	1659.14
1623.51	1680.55
1622.59	1766.9
1621.67	1734.18
1620.74	1842.14
1619.82	2033.91
1618.89	2139.09
1617.97	2173.93
1617.04	2349.35
1616.12	2530.13
1615.19	2627.07
1614.27	2669.93
1613.34	2672.26
1612.42	2734.02
1611.49	2763.34
1610.57	2830.47
1609.64	2754.46
1608.71	2778.36
1607.79	2834.66
1606.86	2769.48
1605.94	2987.7
1605.01	2898.22
1604.08	2954.47
1603.16	2991.82
1602.23	3061.53
1601.3	3096.15
1600.38	3287.17
1599.45	3319.06
1598.52	3421.03
1597.59	3571.49
1596.67	3840.5
1595.74	3928.88
1594.81	4246.25
1593.88	4291.44
1592.95	4657.16
1592.03	4974.29
1591.1	5183.62
1590.17	5616.36
1589.24	5962.83
1588.31	6497.62
1587.38	6954.22
1586.45	7531.77
1585.52	8160.27
1584.6	8799.36
1583.67	9699.17
1582.74	10415.8
1581.81	11186.1
1580.88	12475
1579.95	13502.8
1579.02	14148.7
1578.09	14947.5
1577.16	16006.8
1576.23	16364.5
1575.29	17106.3
1574.36	17216.7
1573.43	17219.6
1572.5	16398.2
1571.57	16111.3
1570.64	15201.7
1569.71	14343.3
1568.78	13428.9
1567.84	12428.8
1566.91	11445.1
1565.98	10614.6
1565.05	9709.2
1564.12	9088.34
1563.18	8186.12
1562.25	7554.93
1561.32	6993.62
1560.39	6488.75
1559.45	5997.42
1558.52	5546.42
1557.59	5106.27
1556.65	4741.24
1555.72	4496.85
1554.79	4322.14
1553.85	3844.93
1552.92	3822.96
1551.99	3477.12
1551.05	3305.33
1550.12	3141.63
1549.18	2999.37
1548.25	2827.73
1547.31	2648.11
1546.38	2639.71
1545.44	2441.45
1544.51	2462.5
1543.57	2339.17
1542.64	2239.94
1541.7	2180.83
1540.77	2132.42
1539.83	2046.61
1538.9	1936.79
1537.96	1992.61
1537.02	1882.83
1536.09	1778.42
1535.15	1850.25
1534.21	1791.26
1533.28	1750.97
1532.34	1740.05
1531.4	1686.43
1530.47	1651.51
1529.53	1627.26
1528.59	1581.69
1527.66	1605.46
1526.72	1621.23
1525.78	1509.03
1524.84	1546.13
1523.9	1465.95
1522.97	1473.74
1522.03	1481.52
1521.09	1478.65
1520.15	1435.81
1519.21	1390.33
1518.27	1371.49
1517.33	1424.55
1516.4	1352.46
1515.46	1288.38
1514.52	1325.46
1513.58	1327.94
1512.64	1341.05
1511.7	1311.6
1510.76	1287.47
1509.82	1289.94
1508.88	1284.44
1507.94	1265.65
1507	1241.54
1506.06	1241.36
1505.12	1140.19
1504.18	1278.21
1503.24	1264.75
1502.29	1259.25
1501.35	1171.42
1500.41	1118.13
1499.47	1163.12
1498.53	1189.5
1497.59	1115
1496.65	1159.96
1495.7	1106.72
1494.76	1183.52
1493.82	1138.24
1492.88	1172.57
1491.93	1148.53
1490.99	1254.45
1490.05	1217.15
1489.11	1174.55
1488.16	1187.64
1487.22	1153.01
1486.28	1160.8
1485.33	1197.73
1484.39	1091.58
1483.45	1099.37
1482.5	1067.43
1481.56	1130.84
1480.61	1109.49
1479.67	1059.03
1478.72	1114.47
1477.78	1109.02
1476.84	1069.17
1475.89	1114
1474.95	1103.25
1474	1015.8
1473.06	1089.72
1472.11	1047.25
1471.17	1039.17
1470.22	1091.89
1469.27	1033.58
1468.33	999.075
1467.38	975.148
1466.44	1056.92
1465.49	1046.2
1464.54	1009.07
1463.6	1024.77
1462.65	1111.77
1461.7	1016.56
1460.76	1045.46
1459.81	1026.83
1458.86	1024.04
1457.91	1000.15
1456.97	1007.92
1456.02	1028.88
1455.07	994.444
1454.12	1062.87
1453.18	1049.54
1452.23	999.292
1451.28	1043.97
1450.33	1080.72
1449.38	1114.83
1448.43	1022.44
1447.48	1035.47
1446.54	1011.61
1445.59	1050.97
1444.64	995.518
1443.69	1019.08
1442.74	1058.42
1441.79	1050.37
1440.84	1055.49
1439.89	1005.34
1438.94	1086.76
1437.99	1112.92
1437.04	1070.67
1436.09	978.459
1435.14	1057.22
1434.19	1075.47
1433.24	1043.77
1432.28	1080.42
1431.33	998.787
1430.38	980.249
1429.43	1061.57
1428.48	1035.14
1427.53	1024.49
1426.58	1071.62
1425.62	1013.69
1424.67	1050.3
1423.72	1084.28
1422.77	1023.75
1421.81	1026.23
1420.86	1104.81
1419.91	1039.06
1418.96	1031.04
1418	1106.96
1417.05	1080.58
1416.1	1096.16
1415.14	1132.71
1414.19	1124.68
1413.24	1095.69
1412.28	1116.5
1411.33	1098
1410.37	1116.18
1409.42	1089.82
1408.46	1108
1407.51	1162.84
1406.56	1141.73
1405.6	1138.95
1404.65	1154.49
1403.69	1162.18
1402.74	1201.27
1401.78	1206.33
1400.82	1140.75
1399.87	1237.38
1398.91	1216.28
1397.96	1294.56
1397	1215.93
1396.04	1207.91
1395.09	1205.13
1394.13	1249.39
1393.18	1280.57
1392.22	1298.68
1391.26	1298.49
1390.3	1282.63
1389.35	1261.56
1388.39	1446.79
1387.43	1438.75
1386.48	1433.33
1385.52	1438.34
1384.56	1427.7
1383.6	1409.23
1382.64	1474.26
1381.69	1536.66
1380.73	1653.83
1379.77	1606.64
1378.81	1715.94
1377.85	1692.23
1376.89	1715.45
1375.93	1775.16
1374.97	1881.76
1374.01	1871.07
1373.06	1964.6
1372.1	2024.24
1371.14	2109.91
1370.18	2198.16
1369.22	2309.82
1368.26	2249.61
1367.3	2356.02
1366.33	2504.05
1365.37	2599.99
1364.41	2685.49
1363.45	2752.76
1362.49	2851.22
1361.53	2918.44
1360.57	2959.63
1359.61	3206.24
1358.65	3242.18
1357.68	3356.1
1356.72	3392.01
1355.76	3513.67
1354.8	3526.16
1353.84	3699.73
1352.87	3616.07
1351.91	3742.83
1350.95	3794.23
1349.99	3754.74
1349.02	3842.48
1348.06	4021.04
1347.1	3898.48
1346.13	3921.28
1345.17	3928.5
1344.21	3948.69
1343.24	3896.25
1342.28	3874.94
1341.32	3980.71
1340.35	3866.05
1339.39	3722.91
1338.42	3831.24
1337.46	3682.96
1336.49	3713.53
1335.53	3580.86
1334.56	3531.12
1333.6	3367.42
1332.63	3486.08
1331.67	3229.21
1330.7	3233.93
1329.74	3047.07
1328.77	2966.39
1327.8	3035.84
1326.84	2962.95
1325.87	2786.58
1324.91	2643.9
1323.94	2568.51
1322.97	2534.52
1322.01	2435.89
1321.04	2422.62
1320.07	2329.21
1319.1	2246.16
1318.14	2173.48
1317.17	2139.57
1316.2	2038.5
1315.23	2035.63
1314.27	2001.76
1313.3	1807.78
1312.33	1851.42
1311.36	1892.46
1310.39	1822.49
1309.42	1752.54
1308.46	1829.71
1307.49	1718.49
1306.52	1679.55
1305.55	1576.12
1304.58	1547.53
1303.61	1544.73
1302.64	1464.57
1301.67	1528.81
1300.7	1412.6
1299.73	1492.29
1298.76	1340.04
1297.79	1373.34
1296.82	1319.04
1295.85	1305.97
1294.88	1303.21
1293.91	1292.72
1292.94	1277.09
1291.97	1233.14
1290.99	1222.67
1290.02	1191.61
1289.05	1235.18
1288.08	1219.57
1287.11	1196.24
1286.14	1139.48
1285.16	1244.76
1284.19	1123.73
1283.22	1180.13
1282.25	1138.83
1281.27	1066.69
1280.3	1153.92
1279.33	1107.5
1278.36	1084.22
1277.38	1035.26
1276.41	1035.11
1275.44	1073.48
1274.46	1070.76
1273.49	1037.23
1272.51	993.44
1271.54	1003.56
1270.57	1023.95
1269.59	990.447
1268.62	977.477
1267.64	951.684
1266.67	1020.8
1265.69	1007.83
1264.72	992.3
1263.74	966.52
1262.77	958.691
1261.79	953.428
1260.82	994.293
1259.84	958.278
1258.87	1004.25
1257.89	911.896
1256.91	937.377
1255.94	886.027
1254.96	842.372
1253.98	878.092
1253.01	890.764
1252.03	875.28
1251.05	946.805
1250.08	877.587
1249.1	846.763
1248.12	920.818
1247.14	843.962
1246.17	874.526
1245.19	894.854
1244.21	894.726
1243.23	881.817
1242.25	861.246
1241.28	835.569
1240.3	866.108
1239.32	848.102
1238.34	855.642
1237.36	819.766
1236.38	778.794
1235.4	801.659
1234.42	837.282
1233.44	834.609
1232.46	831.937
1231.49	908.365
1230.51	844.454
1229.53	806.07
1228.54	836.56
1227.56	823.689
1226.58	821.021
1225.6	805.606
1224.62	846.275
1223.64	823.215
1222.66	828.194
1221.68	833.17
1220.7	848.336
1219.72	832.931
1218.74	769.14
1217.75	763.937
1216.77	824.933
1215.79	812.086
1214.81	778.879
1213.82	816.942
1212.84	804.102
1211.86	811.619
1210.88	821.678
1209.89	783.406
1208.91	829.071
1207.93	790.809
1206.94	793.238
1205.96	877.012
1204.98	808.26
1203.99	810.685
1203.01	749.585
1202.03	769.802
1201.04	812.875
1200.06	736.562
1199.07	817.72
1198.09	779.516
1197.1	738.783
1196.12	738.677
1195.13	804.56
1194.15	799.368
1193.16	766.268
1192.18	773.769
1191.19	793.95
1190.21	758.329
1189.22	743.005
1188.23	742.898
1187.25	780.817
1186.26	788.309
1185.28	811.005
1184.29	770.344
1183.3	737.296
1182.32	820.788
1181.33	818.137
1180.34	726.847
1179.35	744.468
1178.37	726.638
1177.38	761.974
1176.39	756.802
1175.4	731.385
1174.42	774.296
1173.43	791.895
1172.44	809.488
1171.45	799.255
1170.46	753.619
1169.47	756.039
1168.48	760.986
1167.5	763.404
1166.51	760.767
1165.52	760.657
1164.53	727.7
1163.54	720.016
1162.55	757.803
1161.56	709.706
1160.57	803.039
1159.58	719.601
1158.59	780.087
1157.6	782.499
1156.61	704.147
1155.62	751.992
1154.63	779.637
1153.64	771.957
1152.64	797.069
1151.65	743.992
1150.66	796.839
1149.67	723.607
1148.68	763.838
1147.69	753.645
1146.69	756.057
1145.7	768.547
1144.71	758.358
1143.72	778.402
1142.72	793.402
1141.73	788.251
1140.74	808.281
1139.75	747.741
1138.75	803.014
1137.76	752.559
1136.77	810.332
1135.77	762.407
1134.78	772.36
1133.79	817.527
1132.79	772.138
1131.8	812.262
1130.8	784.487
1129.81	756.719
1128.81	811.911
1127.82	759.014
1126.82	791.573
1125.83	796.484
1124.83	773.759
1123.84	730.946
1122.84	818.743
1121.85	780.958
1120.85	795.909
1119.86	778.222
1118.86	780.62
1117.86	790.546
1116.87	772.866
1115.87	717.558
1114.87	817.798
1113.88	782.565
1112.88	769.912
1111.88	834.996
1110.89	754.647
1109.89	752.032
1108.89	819.596
1107.89	789.405
1106.9	826.877
1105.9	816.736
1104.9	769.024
1103.9	846.555
1102.9	793.844
1101.91	803.745
1100.91	741.041
1099.91	768.469
1098.91	820.916
1097.91	793.271
1096.91	735.609
1095.91	815.557
1094.91	812.938
1093.91	750.296
1092.91	747.687
1091.91	780.082
1090.91	789.969
1089.91	814.851
1088.91	762.25
1087.91	779.632
1086.91	861.968
1085.91	801.889
1084.91	761.81
1083.91	806.652
1082.91	786.56
1081.91	766.473
1080.91	748.888
1079.9	773.739
1078.9	701.256
1077.9	776.011
1076.9	793.362
1075.9	795.742
1074.89	750.733
1073.89	745.637
1072.89	767.97
1071.89	770.352
1070.88	722.879
1069.88	790.068
1068.88	735.13
1067.87	749.974
1066.87	732.426
1065.87	712.393
1064.86	749.648
1063.86	747.05
1062.85	702.125
1061.85	746.834
1060.85	771.617
1059.84	701.821
1058.84	746.51
1057.83	701.618
1056.83	736.343
1055.82	793.444
1054.82	751.052
1053.81	733.537
1052.8	743.376
1051.8	773.099
1050.79	795.356
1049.79	703.291
1048.78	782.702
1047.78	722.963
1046.77	775.024
1045.76	774.911
1044.76	767.349
1043.75	737.443
1042.74	764.645
1041.73	816.661
1040.73	871.145
1039.72	928.094
1038.71	880.817
1037.7	890.613
1036.7	982.261
1035.69	939.957
1034.68	1006.77
1033.67	1023.98
1032.66	1083.33
1031.65	1095.57
1030.65	1122.67
1029.64	1134.9
1028.63	1159.51
1027.62	1161.82
1026.61	1171.56
1025.6	1263.02
1024.59	1292.55
1023.58	1336.93
1022.57	1294.65
1021.56	1398.42
1020.55	1430.39
1019.54	1472.24
1018.53	1496.77
1017.52	1454.5
1016.51	1582.9
1015.5	1577.73
1014.49	1631.89
1013.47	1634.13
1012.46	1606.7
1011.45	1722.63
1010.44	1710.03
1009.43	1774.02
1008.42	1860.23
1007.4	1864.9
1006.39	1874.51
1005.38	1884.11
1004.37	1945.56
1003.35	2011.93
1002.34	2127.65
1001.33	2082.92
1000.32	2213.4
999.302	2341.37
998.289	2363.23
997.275	2478.82
996.261	2638.76
995.247	2648.24
994.233	2938.77
993.219	3064.06
992.205	3347.06
991.19	3469.79
990.176	3851.2
989.161	3944.26
988.146	4219.58
987.131	4450.48
986.116	4624.68
985.101	4752.04
984.085	4967.99
983.069	4900.81
982.054	5060.07
981.038	5086.41
980.022	4977.41
979.005	5168.58
977.989	5098.95
976.972	5024.43
975.956	4991.74
974.939	5030.35
973.922	5081.25
972.905	5041.18
971.888	4998.67
970.87	5064.29
969.853	5043.9
968.835	5035.8
967.817	5160.33
966.799	4941.02
965.781	5067.99
964.763	4919.95
963.744	5132.79
962.725	4886.61
961.707	5035.6
960.688	4936.72
959.669	4899.21
958.65	4790.57
957.63	4868.35
956.611	4909.33
955.591	4798.29
954.571	4871.14
953.551	4887.59
952.531	4879.52
951.511	4935.18
950.491	4797.26
949.47	4843.1
948.45	4837.5
947.429	4846.6
946.408	4938.94
945.387	4955.36
944.365	4939.95
943.344	5095.88
942.322	5090.25
941.301	5170.26
940.279	5034.95
939.257	4792.04
938.235	4507.63
937.212	4316.23
936.19	3931.73
935.167	3689.12
934.145	3339.04
933.122	3177.25
932.099	2934.86
931.075	2673
930.052	2540.69
929.029	2288.73
928.005	2049.06
926.981	1855.85
925.957	1696.88
924.933	1613.63
923.909	1569.46
922.885	1459.41
921.86	1425.04
920.835	1356.52
919.81	1363.64
918.785	1382.95
917.76	1314.47
916.735	1319.15
915.71	1238.51
914.684	1260.27
913.658	1267.39
912.632	1259.9
911.606	1208.55
910.58	1337.49
909.554	1217.94
908.527	1188.54
907.501	1193.23
906.474	1185.76
905.447	1175.85
904.42	1221.92
903.393	1165.77
902.366	1141.27
901.338	1272.48
900.31	1167.69
899.283	1160.23
898.255	1230.59
897.226	1198.79
896.198	1186.46
895.17	1183.86
894.141	1156.95
893.112	1137.34
892.084	1180.91
891.055	1151.59
890.025	1153.85
888.996	1129.39
887.967	1124.37
886.937	1143.63
885.907	1206.59
884.877	1136.02
883.847	1164.98
882.817	1184.22
881.787	1108.83
880.756	1128.08
879.726	1161.87
878.695	1154.43
877.664	1098.49
876.633	1103.18
875.601	1100.59
874.57	1139.21
873.538	1124.51
872.507	1153.42
871.475	1107.22
870.443	1143.4
869.411	1102.05
868.378	1123.69
867.346	1135.63
866.313	1106.41
865.281	1118.36
864.248	1156.92
863.215	1091.41
862.181	1083.99
861.148	1161.25
860.114	1074
859.081	1129.47
858.047	1064.02
857.013	1061.44
855.979	1141.07
854.945	1150.57
853.91	1155.23
852.876	1130.9
851.841	1007.52
850.806	1125.74
849.771	1070.02
848.736	1086.77
847.7	1146.98
846.665	1057.48
845.629	1081.47
844.594	1141.65
843.558	1076.33
842.522	1085.82
841.485	1143.57
840.449	1083.09
839.412	1087.76
838.376	1077.95
837.339	1133.25
836.302	1106.57
835.265	1137.75
834.227	1130.35
833.19	1147.05
832.152	1175.8
831.115	1199.72
830.077	1161
829.039	1168.06
828.001	1151.03
826.962	1247.17
825.924	1203.66
824.885	1160.16
823.846	1203.31
822.807	1171.85
821.768	1174.08
820.729	1226.84
819.69	1202.6
818.65	1190.4
817.61	1173.4
816.57	1178.04
815.53	1156.23
814.49	1163.27
813.45	1254.42
812.409	1174.95
811.369	1162.76
810.328	1126.56
809.287	1138.41
808.246	1126.23
807.205	1154.88
806.163	1044.28
805.122	1144.94
804.08	1089.58
803.038	1163.81
801.996	1053.27
800.954	1096.3
799.912	1093.74
798.869	1151.14
797.827	1081.43
796.784	1026.13
795.741	1047.55
794.698	1030.62
793.655	992.13
792.612	1083.04
791.568	1032.57
790.524	1032.42
789.481	1003.53
788.437	1082.4
787.392	1022.39
786.348	962.388
785.304	938.311
784.259	1002.79
783.214	1052.9
782.17	980.967
781.124	1026.28
780.079	992.64
779.034	985.32
777.988	985.176
776.943	953.951
775.897	960.983
774.851	979.964
773.805	936.804
772.759	979.678
771.712	948.476
770.666	979.391
769.619	933.868
768.572	940.896
767.525	871.515
766.478	914.36
765.431	921.387
764.383	873.519
763.335	959.299
762.288	906.668
761.24	885.065
760.192	877.779
759.143	849.032
758.095	870.369
757.046	932.232
755.998	874.882
754.949	889.055
753.9	836.496
752.851	872.116
751.801	841.016
750.752	848.039
749.702	864.588
748.652	881.131
747.602	811.951
746.552	866.589
745.502	859.321
744.452	790.174
743.401	811.476
742.35	842.289
741.3	858.819
740.249	825.392
739.197	827.649
738.146	820.394
737.095	858.316
736.043	829.663
734.991	867.573
733.939	817.538
732.887	879.2
731.835	836.305
730.782	819.554
729.73	876.439
728.677	847.812
727.624	812.071
726.571	835.694
725.518	826.076
724.465	885.291
723.411	847.192
722.358	856.559
721.304	875.413
720.25	861.052
719.196	868.041
718.142	893.999
717.087	853.561
716.033	832.1
714.978	839.089
713.923	834.227
712.868	879.127
711.813	841.09
710.758	838.598
709.702	878.741
708.646	826.511
707.591	902.162
706.535	835.739
705.479	885.328
704.422	880.464
703.366	863.77
702.309	922.797
701.253	922.662
700.196	917.796
699.139	955.503
698.081	910.433
697.024	974.138
695.967	938.535
694.909	999.854
693.851	1020.98
692.793	968.841
691.735	982.875
690.677	1020.53
689.618	1025.1
688.56	991.89
687.501	963.409
686.442	1069.51
685.383	1064.63
684.324	1130.56
683.265	1050.16
682.205	1038.21
681.145	1071.09
680.086	1099.24
679.026	1146.24
677.965	1172.02
676.905	1216.64
675.845	1185.82
674.784	1206.86
673.723	1152.47
672.662	1251.28
671.601	1163.92
670.54	1314.52
669.479	1243.66
668.417	1208.15
667.355	1160.88
666.294	1287.85
665.232	1181.73
664.169	1181.55
663.107	1167.26
662.045	1169.44
660.982	1157.51
659.919	1164.39
658.856	1119.53
657.793	1159.35
656.73	1142.72
655.667	1177.82
654.603	1090.67
653.539	1090.51
652.475	1139.7
651.411	1073.74
650.347	1066.54
649.283	1108.66
648.218	1056.83
647.154	1164.69
646.089	1089.39
645.024	1089.23
643.959	1096.11
642.893	1081.87
641.828	1088.75
640.762	1135.51
639.697	1060.28
638.631	1109.38
637.565	1064.66
636.498	1118.43
635.432	1108.89
634.366	1148.58
633.299	1075.75
632.232	1082.63
631.165	1094.18
630.098	1047.17
629.03	1121.97
627.963	1145.22
626.895	1187.2
625.828	1198.74
624.76	1264.11
623.692	1231.15
622.623	1277.78
621.555	1310.35
620.486	1333.55
619.418	1328.68
618.349	1377.6
617.28	1241.76
616.21	1344.46
615.141	1304.52
614.072	1180.44
613.002	1266.74
611.932	1226.83
610.862	1217.3
609.792	1149.37
608.722	1095.48
607.651	1088.31
606.58	1144.2
605.51	1083.33
604.439	1127.52
603.368	1057.33
602.296	1064.18
601.225	1071.02
600.153	1070.86
599.082	1017.05
598.01	1002.91
596.938	935.135
595.866	972.304
594.793	976.824
593.721	951.039
592.648	950.899
591.575	997.365
590.502	915.67
589.429	973.776
588.356	999.254
587.282	1006.09
586.209	984.989
585.135	949.92
584.061	945.125
582.987	931.02
581.913	961.137
580.838	933.073
579.764	979.466
578.689	949.082
577.614	1007.09
576.539	1020.89
575.464	1039.34
574.389	1020.59
573.313	1006.5
572.237	966.837
571.162	992.256
570.086	1043.23
569.009	1015.2
567.933	1105.63
566.857	1149.6
565.78	1130.85
564.703	1142.29
563.626	1104.98
562.549	1174.45
561.472	1188.2
560.394	1211.23
559.317	1252.81
558.239	1312.94
557.161	1305.79
556.083	1393.72
555.005	1398.15
553.927	1490.68
552.848	1511.32
551.769	1527.32
550.691	1550.27
549.612	1693.69
548.532	1698.07
547.453	1781.21
546.374	1894.43
545.294	2051.61
544.214	2016.58
543.134	2219.99
542.054	2277.53
540.974	2457.7
539.893	2512.87
538.813	2820.2
537.732	2951.64
536.651	3325.89
535.57	3556.65
534.489	3923.76
533.407	4404.04
532.326	5032.12
531.244	5895.75
530.162	6943.99
529.08	8146.72
527.998	10162.3
526.916	13200.4
525.833	17782.8
524.751	25635.7
523.668	40763.6
522.585	72246.8
521.502	132962
520.418	146486
519.335	146465
518.251	134232
517.167	77706.6
516.083	44873
514.999	28235.2
513.915	19713.8
512.831	14373.9
511.746	11421.4
510.661	8985.96
509.576	7385.42
508.491	6236.94
507.406	5266.17
506.321	4707.99
505.235	4249
504.149	3838.51
503.064	3464.97
501.978	3050.1
500.891	2916.16
499.805	2729.32
498.719	2625.38
497.632	2443.24
496.545	2479.69
495.458	2283.83
494.371	2299.59
493.284	2165.89
492.196	2137.98
491.108	2045.73
490.021	2017.84
488.933	1944.01
487.845	1792.09
486.756	1867.63
485.668	1770.89
484.579	1683.36
483.491	1630.3
482.402	1639.24
481.313	1611.45
480.223	1569.9
479.134	1569.67
478.044	1434.06
476.955	1495.79
475.865	1422.17
474.775	1444.89
473.684	1352.95
472.594	1359.63
471.504	1409.87
470.413	1366.11
469.322	1299.44
468.231	1363.41
467.14	1296.77
466.048	1262.21
464.957	1223.09
463.865	1245.81
462.774	1181.51
461.682	1195.08
460.589	1117.07
459.497	1096.31
458.405	1082.41
457.312	1176.06
456.219	1201.06
455.126	1136.83
454.033	1198.41
452.94	1223.39
451.846	1268.94
450.753	1268.75
449.659	1385.13
448.565	1341.51
447.471	1361.87
446.377	1407.36
445.282	1407.16
444.188	1473.18
443.093	1425.01
441.998	1461.33
440.903	1502.21
439.808	1618.4
438.713	1554.26
437.617	1713.77
436.521	1670.16
435.425	1710.98
434.329	1710.73
433.233	1728.72
432.137	1748.98
431.04	1703.13
429.944	1759.86
428.847	1695.78
427.75	1697.81
426.653	1706.68
425.555	1706.42
424.458	1583.16
423.36	1701.36
422.262	1676.06
421.164	1657.6
420.066	1664.18
418.968	1759.54
417.87	1665.96
416.771	1624.76
415.672	1708.7
414.573	1653.85
413.474	1662.7
412.375	1544.2
411.275	1523.5
410.176	1655.14
409.076	1611.71
407.976	1620.56
406.876	1615.78
405.776	1597.36
404.675	1619.84
403.575	1617.33
402.474	1596.65
401.373	1641.83
400.272	1596.18
399.171	1614.1
398.069	1645.64
396.968	1629.51
395.866	1540.77
394.764	1640.37
393.662	1642.4
392.56	1669.37
391.458	1641.91
390.355	1598.58
389.252	1639.15
388.149	1740.92
387.046	1620.54
385.943	1715.48
384.84	1638.18
383.736	1647
382.633	1707.92
381.529	1644.25
380.425	1723.26
379.321	1695.84
378.216	1779.35
377.112	1731.55
376.007	1729.03
374.902	1744.61
373.797	1662.91
372.692	1768.98
371.587	1732.53
370.481	1800.11
369.376	1752.36
368.27	1743.06
367.164	1824.18
366.058	1812.61
364.951	1825.9
363.845	1825.63
362.738	1782.43
361.632	1831.86
360.525	1784.16
359.417	1795.19
358.31	1835.56
357.203	1898.5
356.095	1918.53
354.987	1915.99
353.879	1929.24
352.771	1870.3
351.663	1921.9
350.555	1946.42
349.446	1921.33
348.337	1977.41
347.228	1968.1
346.119	1994.86
345.01	1933.71
343.9	1926.66
342.791	1978.2
341.681	2079.28
340.571	2006.89
339.461	2022.36
338.351	2031.07
337.24	2060.03
336.13	2102.5
335.019	2131.44
333.908	2119.88
332.797	2074.56
331.686	2119.25
330.574	2127.93
329.463	2111.87
328.351	2145.29
327.239	2295.61
326.127	2203.1
325.015	2272.45
323.902	2359.76
322.79	2323.46
321.677	2291.66
320.564	2300.3
319.451	2401.03
318.338	2353.52
317.225	2431.76
316.111	2440.37
314.997	2516.33
313.883	2567.58
312.769	2659.2
311.655	2748.56
310.541	2766.1
309.426	2749.98
308.312	2736.12
307.197	2924.07
306.082	3136.63
304.966	3185.48
303.851	3393.46
302.735	3507.25
301.62	3567.23
300.504	3450.19
299.388	3378
