3199.22	489.229
3198.51	499.864
3197.81	464.349
3197.1	524.537
3196.4	517.378
3195.69	464.159
3194.98	464.096
3194.28	495.913
3193.57	499.387
3192.87	449.741
3192.16	488.628
3191.45	442.537
3190.75	530.972
3190.04	460.113
3189.34	467.128
3188.63	445.834
3187.92	474.076
3187.22	466.937
3186.51	452.725
3185.8	449.127
3185.09	452.602
3184.39	491.43
3183.68	438.338
3182.97	410.002
3182.27	445.286
3181.56	448.759
3180.85	441.632
3180.14	423.909
3179.44	459.172
3178.73	452.046
3178.02	420.204
3177.31	494.29
3176.6	423.619
3175.89	458.858
3175.19	472.912
3174.48	490.491
3173.77	437.501
3173.06	402.163
3172.35	483.236
3171.64	430.268
3170.93	394.946
3170.23	500.667
3169.52	437.142
3168.81	408.884
3168.1	412.352
3167.39	496.87
3166.68	447.474
3165.97	450.936
3165.26	450.874
3164.55	401.505
3163.84	521.181
3163.13	447.168
3162.42	461.189
3161.71	422.406
3161	411.789
3160.29	443.405
3159.58	422.233
3158.87	386.994
3158.16	460.812
3157.45	464.266
3156.73	499.369
3156.02	414.912
3155.31	425.403
3154.6	478.073
3153.89	418.257
3153.18	467.4
3152.47	467.336
3151.76	502.405
3151.04	516.388
3150.33	456.607
3149.62	481.128
3148.91	463.505
3148.2	473.975
3147.48	449.337
3146.77	491.395
3146.06	491.328
3145.35	452.662
3144.63	445.583
3143.92	463.062
3143.21	470.014
3142.5	519.049
3141.78	448.846
3141.07	459.303
3140.36	504.814
3139.64	504.745
3138.93	501.171
3138.22	459.052
3137.5	458.989
3136.79	458.927
3136.08	423.836
3135.36	486.82
3134.65	455.237
3133.93	455.175
3133.22	427.105
3132.51	413.046
3131.79	454.988
3131.08	426.93
3130.36	412.876
3129.65	475.792
3128.93	423.257
3128.22	440.687
3127.5	423.142
3126.79	447.56
3126.07	485.956
3125.36	475.402
3124.64	496.308
3123.93	419.358
3123.21	450.748
3122.5	485.624
3121.78	461.105
3121.07	481.998
3120.35	471.456
3119.63	478.375
3118.92	436.414
3118.2	443.336
3117.49	492.14
3116.77	436.235
3116.05	387.323
3115.34	498.916
3114.62	488.383
3113.9	415.068
3113.19	533.587
3112.47	495.156
3111.75	421.871
3111.03	446.216
3110.32	460.098
3109.6	473.975
3108.88	446.033
3108.17	439.004
3107.45	466.813
3106.73	491.132
3106.01	452.755
3105.29	435.282
3104.58	442.186
3103.86	442.125
3103.14	442.065
3102.42	459.406
3101.7	476.743
3100.98	445.363
3100.27	441.823
3099.55	455.677
3098.83	459.092
3098.11	452.075
3097.39	479.829
3096.67	441.521
3095.95	500.554
3095.23	458.779
3094.51	486.517
3093.79	448.229
3093.07	437.745
3092.35	465.475
3091.63	458.465
3090.91	513.966
3090.19	444.451
3089.47	447.862
3088.75	499.87
3088.03	510.214
3087.31	468.5
3086.59	506.605
3085.87	513.475
3085.15	523.811
3084.43	495.992
3083.71	471.648
3082.99	506.259
3082.27	478.453
3081.55	499.187
3080.83	467.924
3080.1	492.119
3079.38	443.54
3078.66	450.409
3077.94	443.419
3077.22	450.286
3076.5	481.393
3075.77	498.641
3075.05	512.422
3074.33	463.887
3073.61	467.285
3072.89	415.307
3072.16	498.301
3071.44	491.313
3070.72	494.705
3070	498.096
3069.27	453.067
3068.55	466.837
3067.83	487.519
3067.1	459.796
3066.38	483.929
3065.66	504.6
3064.93	425.05
3064.21	438.813
3063.49	418.024
3062.76	445.601
3062.04	480.078
3061.31	438.573
3060.59	452.324
3059.87	466.072
3059.14	503.979
3058.42	548.779
3057.69	493.488
3056.97	462.366
3056.24	472.653
3055.52	520.882
3054.79	458.728
3054.07	472.459
3053.34	441.361
3052.62	489.568
3051.89	461.924
3051.17	492.881
3050.44	448.012
3049.72	499.638
3048.99	485.788
3048.27	485.722
3047.54	533.877
3046.81	523.472
3046.09	478.636
3045.36	485.456
3044.64	506.045
3043.91	464.671
3043.18	419.868
3042.46	492.073
3041.73	516.089
3041	516.019
3040.28	502.19
3039.55	433.337
3038.82	495.175
3038.1	488.231
3037.37	488.164
3036.64	512.158
3035.91	484.593
3035.19	487.963
3034.46	532.563
3033.73	491.265
3033	487.763
3032.28	498
3031.55	518.536
3030.82	528.765
3030.09	473.764
3029.36	483.997
3028.63	507.956
3027.91	459.843
3027.18	521.541
3026.45	480.301
3025.72	493.957
3024.99	514.468
3024.26	476.675
3023.53	473.181
3022.8	507.4
3022.07	524.47
3021.34	455.849
3020.62	500.338
3019.89	462.578
3019.16	507.053
3018.43	500.132
3017.7	411.011
3016.97	482.872
3016.24	496.503
3015.51	482.74
3014.78	445.019
3014.05	458.649
3013.31	506.498
3012.58	506.428
3011.85	564.522
3011.12	448.135
3010.39	478.857
3009.66	530.091
3008.93	465.048
3008.2	547.041
3007.47	495.688
3006.74	478.53
3006	471.629
3005.27	498.901
3004.54	577.416
3003.81	495.349
3003.08	519.191
3002.35	522.535
3001.61	525.878
3000.88	570.193
3000.15	515.493
2999.42	529.076
2998.68	505.113
2997.95	481.157
2997.22	556.154
2996.49	542.432
2995.75	525.303
2995.02	501.357
2994.29	555.85
2993.55	490.99
2992.82	542.061
2992.09	511.308
2991.35	497.605
2990.62	541.838
2989.89	582.652
2989.15	483.773
2988.42	555.241
2987.68	497.265
2986.95	490.386
2986.22	507.343
2985.48	595.792
2984.75	517.417
2984.01	541.171
2983.28	578.531
2982.54	602.271
2981.81	527.34
2981.07	557.883
2980.34	568.011
2979.6	550.929
2978.87	588.257
2978.13	588.176
2977.4	581.297
2976.66	537.031
2975.93	567.544
2975.19	543.68
2974.45	543.606
2973.72	553.723
2972.98	591.009
2972.25	601.117
2971.51	611.222
2970.77	614.533
2970.04	624.633
2969.3	648.308
2968.56	617.674
2967.83	573.476
2967.09	566.612
2966.35	624.206
2965.62	590.2
2964.88	583.337
2964.14	637.513
2963.4	606.911
2962.67	606.828
2961.93	599.965
2961.19	616.829
2960.45	609.967
2959.72	643.766
2958.98	589.473
2958.24	592.78
2957.5	596.085
2956.76	602.776
2956.03	650.097
2955.29	636.466
2954.55	605.914
2953.81	643.061
2953.07	632.82
2952.33	554.911
2951.59	663.095
2950.85	619.03
2950.12	642.62
2949.38	666.204
2948.64	655.969
2947.9	662.641
2947.16	652.409
2946.42	635.42
2945.68	669.128
2944.94	631.867
2944.2	682.458
2943.46	695.877
2942.72	658.628
2941.98	668.669
2941.24	678.708
2940.5	685.367
2939.76	685.273
2939.02	634.55
2938.28	705.334
2937.53	644.499
2936.79	671.402
2936.05	674.683
2935.31	657.726
2934.57	623.911
2933.83	711.498
2933.09	708.029
2932.35	704.561
2931.6	667.387
2930.86	667.296
2930.12	711.011
2929.38	680.59
2928.64	707.447
2927.89	680.403
2927.15	656.735
2926.41	670.115
2925.67	686.858
2924.92	609.334
2924.18	713.598
2923.44	683.21
2922.7	673.021
2921.95	666.199
2921.21	679.565
2920.47	726.563
2919.72	639.019
2918.98	628.843
2918.24	659.018
2917.49	679.099
2916.75	685.729
2916	688.996
2915.26	678.82
2914.52	645.126
2913.77	715.589
2913.03	725.568
2912.28	644.861
2911.54	708.578
2910.79	728.627
2910.05	637.881
2909.31	617.653
2908.56	657.844
2907.82	600.704
2907.07	640.887
2906.33	650.864
2905.58	664.193
2904.83	627.207
2904.09	670.718
2903.34	593.504
2902.6	600.128
2901.85	653.681
2901.11	693.812
2900.36	690.366
2899.61	629.956
2898.87	633.22
2898.12	656.583
2897.38	673.24
2896.63	619.564
2895.88	616.13
2895.14	669.615
2894.39	639.394
2893.64	602.488
2892.89	612.445
2892.15	726.134
2891.4	635.698
2890.65	665.719
2889.91	668.972
2889.16	675.569
2888.41	672.133
2887.66	672.04
2886.92	648.547
2886.17	668.514
2885.42	665.08
2884.67	668.33
2883.92	604.756
2883.17	648.102
2882.43	601.25
2881.68	684.663
2880.93	634.478
2880.18	681.136
2879.43	644.32
2878.68	637.555
2877.93	654.155
2877.18	620.695
2876.43	617.273
2875.69	643.878
2874.94	700.496
2874.19	663.712
2873.44	620.269
2872.69	616.85
2871.94	620.099
2871.19	596.68
2870.44	649.925
2869.69	613.179
2868.94	676.403
2868.19	619.674
2867.44	632.913
2866.68	656.141
2865.93	599.437
2865.18	642.642
2864.43	682.505
2863.68	645.794
2862.93	572.481
2862.18	638.961
2861.43	712.078
2860.68	625.478
2859.92	668.637
2859.17	681.85
2858.42	638.523
2857.67	651.736
2856.92	658.296
2856.17	628.287
2855.41	694.677
2854.66	618.145
2853.91	634.675
2853.16	667.812
2852.4	677.686
2851.65	654.342
2850.9	631.005
2850.15	680.728
2849.39	664.034
2848.64	660.623
2847.89	670.49
2847.13	710.223
2846.38	710.126
2845.63	673.532
2844.87	676.757
2844.12	670.03
2843.37	669.938
2842.61	656.581
2841.86	696.279
2841.1	682.922
2840.35	669.57
2839.59	616.45
2838.84	622.993
2838.09	603.027
2837.33	662.577
2836.58	722.109
2835.82	722.01
2835.07	718.599
2834.31	665.524
2833.56	751.508
2832.8	655.411
2832.05	688.418
2831.29	718.106
2830.53	731.243
2829.78	707.984
2829.02	744.274
2828.27	767.323
2827.51	750.683
2826.76	724.128
2826	773.619
2825.24	727.235
2824.49	717.219
2823.73	717.121
2822.97	687.284
2822.22	740.05
2821.46	680.489
2820.7	726.636
2819.95	719.931
2819.19	742.946
2818.43	736.241
2817.67	713.032
2816.92	802.051
2816.16	732.637
2815.4	762.234
2814.64	808.319
2813.89	775.22
2813.13	719.042
2812.37	778.305
2811.61	735.331
2810.85	731.933
2810.1	817.543
2809.34	761.397
2808.58	748.11
2807.82	711.76
2807.06	794.031
2806.3	777.45
2805.54	793.812
2804.78	787.117
2804.02	724.443
2803.27	773.73
2802.51	786.792
2801.75	829.475
2800.99	789.867
2800.23	789.759
2799.47	792.94
2798.71	842.178
2797.95	789.433
2797.19	832.08
2796.43	854.984
2795.67	868.019
2794.91	881.049
2794.15	864.493
2793.38	785.496
2792.62	867.542
2791.86	877.279
2791.1	860.733
2790.34	831.051
2789.58	876.918
2788.82	866.946
2788.06	925.928
2787.3	866.707
2786.53	886.284
2785.77	866.469
2785.01	869.632
2784.25	981.072
2783.49	918.604
2782.72	898.796
2781.96	947.87
2781.2	964.136
2780.44	934.493
2779.67	875.352
2778.91	930.959
2778.15	940.663
2777.39	986.414
2776.62	950.235
2775.86	995.971
2775.1	1071.18
2774.33	976.045
2773.57	1031.58
2772.81	995.424
2772.04	1011.66
2771.28	1021.34
2770.52	1096.48
2769.75	1079.96
2768.99	1109.27
2768.22	1164.73
2767.46	1069.71
2766.7	1112.08
2765.93	1200.23
2765.17	1088.88
2764.4	1163.93
2763.64	1121.27
2762.87	1101.51
2762.11	1117.7
2761.34	1287.46
2760.58	1235.01
2759.81	1254.44
2759.05	1251
2758.28	1276.96
2757.52	1329.03
2756.75	1358.23
2755.98	1286.22
2755.22	1462.31
2754.45	1429.47
2753.69	1530.43
2752.92	1481.28
2752.15	1497.39
2751.39	1549.37
2750.62	1552.42
2749.85	1558.73
2749.09	1620.46
2748.32	1711.52
2747.55	1727.59
2746.79	1834.9
2746.02	1775.99
2745.25	1723.61
2744.48	1863.46
2743.72	1960.93
2742.95	2042.08
2742.18	2097.16
2741.41	2096.87
2740.65	2295.17
2739.88	2135.35
2739.11	2323.83
2738.34	2408.12
2737.57	2424.06
2736.8	2456.26
2736.04	2618.56
2735.27	2553.16
2734.5	2582.07
2733.73	2754.05
2732.96	2948.74
2732.19	2893.07
2731.42	2931.67
2730.65	3074.26
2729.88	3145.32
2729.11	3222.86
2728.34	3306.87
2727.57	3296.68
2726.8	3432.62
2726.03	3435.39
2725.26	3671.92
2724.49	3726.6
2723.72	3803.99
2722.95	3978.71
2722.18	3945.71
2721.41	4032.77
2720.64	4097.09
2719.87	4180.86
2719.1	4326.22
2718.33	4241.32
2717.56	4383.39
2716.79	4408.72
2716.02	4382.18
2715.24	4456.12
2714.47	4594.84
2713.7	4539.13
2712.93	4596.81
2712.16	4635.05
2711.39	4660.32
2710.61	4730.92
2709.84	4814.45
2709.07	4849.39
2708.3	4774.28
2707.52	4676.53
2706.75	4785.91
2705.98	4849.96
2705.21	4826.65
2704.43	4942.43
2703.66	4718.59
2702.89	4989.57
2702.11	5008.28
2701.34	5017.29
2700.57	4871.15
2699.79	4931.88
2699.02	5018.45
2698.25	4768.97
2697.47	5013.84
2696.7	4945.32
2695.92	4970.47
2695.15	5015
2694.38	4940.05
2693.6	4949.05
2692.83	4864.44
2692.05	5021.92
2691.28	4856.65
2690.5	4910.83
2689.73	4819.83
2688.95	4828.84
2688.18	4999.11
2687.4	4943.6
2686.63	4830.07
2685.85	4835.85
2685.08	4764.27
2684.3	4776.51
2683.53	4840.3
2682.75	4904.07
2681.97	4739.09
2681.2	4699.79
2680.42	4741.01
2679.64	4708.15
2678.87	4749.36
2678.09	4755.15
2677.32	4638.61
2676.54	4731.31
2675.76	4527.91
2674.98	4581.99
2674.21	4449.45
2673.43	4435.97
2672.65	4422.5
2671.88	4383.3
2671.1	4366.61
2670.32	4234.2
2669.54	4178.97
2668.77	4249.1
2667.99	4168.17
2667.21	4164.39
2666.43	4086.7
2665.65	4034.74
2664.87	3995.64
2664.1	3914.81
2663.32	3805.09
2662.54	3782.09
2661.76	3852.19
2660.98	3598.1
2660.2	3620.07
2659.42	3542.55
2658.64	3586.98
2657.86	3387.6
2657.09	3464.11
2656.31	3373.83
2655.53	3325.27
2654.75	3257.48
2653.97	3186.51
2653.19	3147.6
2652.41	3095.89
2651.63	3130.71
2650.85	2982.9
2650.07	2908.81
2649.28	2975.67
2648.5	2956.05
2647.72	2869.18
2646.94	2763.13
2646.16	2868.39
2645.38	2608.72
2644.6	2691.57
2643.82	2556.8
2643.04	2572.45
2642.26	2543.3
2641.47	2542.95
2640.69	2427.46
2639.91	2503.88
2639.13	2398.02
2638.35	2423.26
2637.56	2311.05
2636.78	2269.18
2636	2329.59
2635.22	2185.48
2634.44	2213.94
2633.65	2191.27
2632.87	2168.61
2632.09	2094.86
2631.3	2030.72
2630.52	2087.9
2629.74	2023.77
2628.95	2064.98
2628.17	2045.55
2627.39	1984.65
2626.6	1939.71
2625.82	1859.69
2625.04	1830.73
2624.25	1884.69
2623.47	1909.94
2622.68	1829.98
2621.9	1804.22
2621.12	1676.48
2620.33	1803.72
2619.55	1647.34
2618.76	1675.79
2617.98	1822.09
2617.19	1751.77
2616.41	1636.88
2615.62	1588.89
2614.84	1575.94
2614.05	1518.42
2613.27	1511.85
2612.48	1559.38
2611.69	1622.8
2610.91	1418.96
2610.12	1466.48
2609.34	1479
2608.55	1472.44
2607.76	1446.79
2606.98	1449.77
2606.19	1325.6
2605.4	1503.41
2604.62	1350.66
2603.83	1318.69
2603.04	1356.64
2602.26	1321.51
2601.47	1334.03
2600.68	1235.39
2599.9	1171.72
2599.11	1193.78
2598.32	1269.8
2597.53	1225.19
2596.75	1190.11
2595.96	1199.47
2595.17	1161.23
2594.38	1151.55
2593.59	1116.5
2592.81	1233.69
2592.02	1135.22
2591.23	1109.7
2590.44	1100.03
2589.65	1065.02
2588.86	1131.42
2588.07	1061.55
2587.28	1143.78
2586.5	1077.1
2585.71	1080.12
2584.92	1076.8
2584.13	1089.32
2583.34	1060.67
2582.55	981.384
2581.76	1006.57
2580.97	971.619
2580.18	1009.46
2579.39	1015.65
2578.6	1059.8
2577.81	948.94
2577.02	970.948
2576.23	967.652
2575.44	967.518
2574.64	973.707
2573.85	967.251
2573.06	840.697
2572.27	970.144
2571.48	957.372
2570.69	897.214
2569.9	887.614
2569.11	830.642
2568.31	922.106
2567.52	884.089
2566.73	805.041
2565.94	874.375
2565.15	880.567
2564.35	877.29
2563.56	940.274
2562.77	883.357
2561.98	914.779
2561.18	914.653
2560.39	864.07
2559.6	876.563
2558.81	848.068
2558.01	847.951
2557.22	876.2
2556.43	913.895
2555.63	888.561
2554.84	913.643
2554.05	800.114
2553.25	809.453
2552.46	818.788
2551.66	809.229
2550.87	868.935
2550.08	831.041
2549.28	859.253
2548.49	837.105
2547.69	792.937
2546.9	817.997
2546.1	918.547
2545.31	817.771
2544.51	852.251
2543.72	770.379
2542.92	789.136
2542.13	858.185
2541.33	741.772
2540.54	807.665
2539.74	848.403
2538.95	804.3
2538.15	788.482
2537.35	750.682
2536.56	885.62
2535.76	797.576
2534.97	847.7
2534.17	791.077
2533.37	797.245
2532.58	790.858
2531.78	746.819
2530.98	749.853
2530.19	812.49
2529.39	765.329
2528.59	821.674
2527.79	790.203
2527	752.47
2526.2	724.152
2525.4	849.429
2524.6	799.168
2523.81	764.588
2523.01	736.285
2522.21	827.031
2521.41	783.065
2520.61	770.429
2519.82	745.272
2519.02	773.347
2518.22	726.283
2517.42	838.866
2516.62	776.156
2515.82	725.981
2515.02	754.04
2514.22	803.99
2513.42	819.518
2512.63	703.687
2511.83	778.64
2511.03	775.405
2510.23	769.046
2509.43	775.191
2508.63	762.582
2507.83	790.601
2507.03	768.621
2506.23	749.77
2505.43	762.161
2504.63	737.07
2503.83	736.968
2503.02	802.435
2502.22	755.496
2501.42	767.877
2500.62	770.892
2499.82	764.544
2499.02	792.52
2498.22	767.452
2497.42	736.153
2496.61	782.834
2495.81	757.778
2495.01	732.73
2494.21	810.567
2493.41	857.212
2492.61	744.892
2491.8	819.58
2491	828.814
2490.2	781.968
2489.4	784.975
2488.59	781.752
2487.79	790.986
2486.99	850.037
2486.18	806.334
2485.38	812.448
2484.58	753.2
2483.77	837.119
2482.97	858.783
2482.17	858.665
2481.36	839.882
2480.56	849.096
2479.76	755.684
2478.95	842.643
2478.15	823.872
2477.34	829.975
2476.54	773.915
2475.73	845.284
2474.93	857.596
2474.13	891.652
2473.32	913.273
2472.52	891.405
2471.71	866.438
2470.91	825.952
2470.1	934.5
2469.3	890.912
2468.49	906.307
2467.68	890.665
2466.88	902.954
2466.07	890.419
2465.27	918.214
2464.46	905.68
2463.65	859.037
2462.85	886.825
2462.04	933.208
2461.24	914.479
2460.43	1047.63
2459.62	914.226
2458.82	960.579
2458.01	917.071
2457.2	935.53
2456.39	969.472
2455.59	888.818
2454.78	932.045
2453.97	959.781
2453.16	944.17
2452.36	1018.32
2451.55	993.425
2450.74	965.438
2449.93	925.084
2449.13	915.675
2448.32	1011.43
2447.51	971.089
2446.7	1004.97
2445.89	1014.1
2445.08	995.416
2444.27	976.733
2443.46	970.417
2442.66	920.841
2441.85	923.803
2441.04	994.727
2440.23	948.258
2439.42	994.452
2438.61	914.028
2437.8	907.726
2436.99	929.21
2436.18	910.561
2435.37	941.297
2434.56	981.282
2433.75	907.098
2432.94	937.821
2432.13	977.79
2431.32	959.15
2430.51	900.428
2429.7	860.221
2428.88	875.516
2428.07	924.712
2427.26	881.437
2426.45	807.358
2425.64	896.598
2424.83	859.506
2424.02	840.906
2423.21	859.268
2422.39	828.355
2421.58	852.872
2420.77	781.947
2419.96	809.542
2419.14	772.498
2418.33	726.232
2417.52	787.668
2416.71	778.329
2415.89	738.234
2415.08	744.283
2414.27	768.78
2413.46	731.777
2412.64	787.013
2411.83	722.353
2411.02	762.207
2410.2	743.664
2409.39	712.835
2408.57	709.664
2407.76	660.418
2406.95	734.038
2406.13	654.094
2405.32	767.609
2404.5	684.612
2403.69	672.239
2402.88	712.045
2402.06	696.603
2401.25	619.798
2400.43	650.391
2399.62	601.222
2398.8	693.149
2397.99	653.187
2397.17	668.428
2396.35	683.664
2395.54	668.242
2394.72	649.76
2393.91	658.863
2393.09	655.708
2392.28	655.617
2391.46	585.072
2390.64	603.368
2389.83	633.908
2389.01	661.377
2388.19	655.163
2387.38	609.156
2386.56	679.466
2385.74	605.926
2384.93	624.201
2384.11	624.115
2383.29	651.559
2382.47	593.356
2381.66	602.448
2380.84	645.172
2380.02	614.51
2379.2	541.061
2378.39	577.663
2377.57	611.198
2376.75	583.613
2375.93	577.422
2375.11	617.053
2374.29	592.533
2373.48	604.667
2372.66	583.209
2371.84	650.294
2371.02	589.152
2370.2	604.331
2369.38	643.92
2368.56	564.496
2367.74	634.589
2366.92	607.046
2366.1	594.762
2365.28	649.573
2364.46	591.548
2363.64	567.075
2362.82	542.609
2362	560.822
2361.18	557.696
2360.36	591.137
2359.54	636.755
2358.72	612.297
2357.9	609.166
2357.08	575.582
2356.26	560.277
2355.44	584.556
2354.62	590.563
2353.79	611.787
2352.97	593.442
2352.15	590.317
2351.33	602.405
2350.51	638.826
2349.69	583.988
2348.86	605.195
2348.04	626.397
2347.22	635.431
2346.4	607.983
2345.57	595.741
2344.75	556.15
2343.93	562.15
2343.11	586.378
2342.28	622.75
2341.46	619.626
2340.64	610.429
2339.81	573.906
2338.99	607.224
2338.17	579.818
2337.34	573.667
2336.52	561.448
2335.7	576.542
2334.87	615.904
2334.05	603.684
2333.22	570.236
2332.4	645.975
2331.57	752.017
2330.75	709.466
2329.93	657.832
2329.1	588.026
2328.28	600.067
2327.45	639.377
2326.63	596.871
2325.8	599.817
2324.97	578.531
2324.15	639.021
2323.32	545.061
2322.5	557.096
2321.67	584.264
2320.85	617.478
2320.02	605.287
2319.19	550.734
2318.37	611.17
2317.54	562.682
2316.71	532.356
2315.89	574.623
2315.06	514.065
2314.23	604.698
2313.41	571.361
2312.58	525.941
2311.75	534.935
2310.93	580.188
2310.1	586.15
2309.27	549.817
2308.44	616.193
2307.62	582.885
2306.79	573.745
2305.96	555.55
2305.13	612.831
2304.3	585.58
2303.47	564.372
2302.65	528.082
2301.82	537.061
2300.99	597.322
2300.16	573.108
2299.33	573.028
2298.5	578.979
2297.67	606.035
2296.84	566.76
2296.01	533.524
2295.19	596.74
2294.36	536.389
2293.53	542.341
2292.7	539.253
2291.87	542.19
2291.04	536.091
2290.21	572.152
2289.38	587.127
2288.54	626.182
2287.71	617.065
2286.88	568.824
2286.05	541.662
2285.22	568.666
2284.39	505.411
2283.56	586.556
2282.73	595.497
2281.9	601.428
2281.07	544.217
2280.23	520.091
2279.4	541.06
2278.57	553.006
2277.74	552.93
2276.91	621.959
2276.07	531.746
2275.24	570.722
2274.41	591.666
2273.58	582.575
2272.74	540.458
2271.91	600.425
2271.08	552.314
2270.25	570.245
2269.41	567.165
2268.58	510.078
2267.75	567.007
2266.91	527.933
2266.08	578.846
2265.25	614.751
2264.41	569.69
2263.58	572.609
2262.74	566.534
2261.91	548.473
2261.08	536.409
2260.24	542.327
2259.41	572.211
2258.57	515.217
2257.74	530.121
2256.9	565.983
2256.07	574.886
2255.23	508.943
2254.4	505.879
2253.56	577.639
2252.73	505.738
2251.89	586.455
2251.06	550.473
2250.22	547.405
2249.38	580.228
2248.55	553.233
2247.71	535.216
2246.88	508.235
2246.04	535.067
2245.2	558.903
2244.37	573.767
2243.53	564.723
2242.69	543.732
2241.86	558.592
2241.02	516.7
2240.18	510.656
2239.34	549.401
2238.51	516.484
2237.67	567.158
2236.83	537.233
2235.99	537.158
2235.16	525.148
2234.32	566.842
2233.48	569.746
2232.64	536.859
2231.8	599.409
2230.97	560.563
2230.13	527.691
2229.29	563.388
2228.45	563.309
2227.61	545.351
2226.77	542.295
2225.93	574.991
2225.09	595.763
2224.25	500.371
2223.41	509.235
2222.57	544.895
2221.73	509.093
2220.89	580.464
2220.05	526.809
2219.21	571.375
2218.37	544.516
2217.53	639.642
2216.69	588.984
2215.85	553.211
2215.01	526.369
2214.17	579.817
2213.33	552.98
2212.49	570.738
2211.65	591.464
2210.81	558.692
2209.97	537.815
2209.12	540.711
2208.28	620.839
2207.44	552.44
2206.6	558.303
2205.76	537.44
2204.92	564.085
2204.07	543.227
2203.23	566.896
2202.39	540.108
2201.55	584.541
2200.7	634.895
2199.86	602.176
2199.02	527.943
2198.17	584.215
2197.33	548.552
2196.49	545.511
2195.64	572.113
2194.8	580.925
2193.96	583.808
2193.11	592.616
2192.27	542.168
2191.43	610.224
2190.58	571.635
2189.74	506.404
2188.89	538.905
2188.05	595.081
2187.2	553.555
2186.36	547.558
2185.52	597.791
2184.67	571.077
2183.83	559.164
2182.98	517.672
2182.14	561.965
2181.29	570.759
2180.44	544.067
2179.6	603.121
2178.75	526.179
2177.91	591.13
2177.06	537.853
2176.22	590.965
2175.37	602.7
2174.52	552.398
2173.68	525.739
2172.83	543.385
2171.98	578.742
2171.14	581.614
2170.29	560.869
2169.44	504.712
2168.6	540.055
2167.75	548.831
2166.9	584.158
2166.05	622.425
2165.21	554.501
2164.36	536.729
2163.51	495.373
2162.66	595.544
2161.81	595.461
2160.97	557.061
2160.12	598.242
2159.27	559.852
2158.42	550.936
2157.57	565.588
2156.72	559.618
2155.87	559.54
2155.02	618.353
2154.18	526.998
2153.33	568.137
2152.48	582.774
2151.63	535.606
2150.78	556.129
2149.93	547.225
2149.08	538.324
2148.23	588.25
2147.38	529.351
2146.53	564.562
2145.68	590.944
2144.83	561.465
2143.98	558.447
2143.13	587.757
2142.28	578.86
2141.42	534.71
2140.57	546.385
2139.72	572.743
2138.87	581.474
2138.02	619.565
2137.17	534.337
2136.32	548.94
2135.46	581.149
2134.61	548.786
2133.76	516.433
2132.91	516.36
2132.06	548.556
2131.2	557.279
2130.35	560.134
2129.5	571.784
2128.65	542.386
2127.79	574.556
2126.94	553.959
2126.09	548.02
2125.23	542.083
2124.38	568.376
2123.53	571.226
2122.67	521.354
2121.82	521.281
2120.97	544.633
2120.11	629.461
2119.26	594.245
2118.4	585.381
2117.55	614.565
2116.7	555.957
2115.84	526.623
2114.99	517.773
2114.13	596.672
2113.28	520.553
2112.42	570.189
2111.57	558.415
2110.71	628.494
2109.86	534.876
2109	537.724
2108.15	581.479
2107.29	584.319
2106.43	578.395
2105.58	546.186
2104.72	566.552
2103.87	537.273
2103.01	616.026
2102.15	575.072
2101.3	586.666
2100.44	542.809
2099.58	577.748
2098.73	589.338
2097.87	580.504
2097.01	513.339
2096.15	568.677
2095.3	594.84
2094.44	580.18
2093.58	565.523
2092.72	521.724
2091.87	556.622
2091.01	565.286
2090.15	556.467
2089.29	568.041
2088.43	576.699
2087.58	602.829
2086.72	535.773
2085.86	556.078
2085	567.644
2084.14	553.011
2083.28	616.958
2082.42	581.955
2081.56	529.505
2080.7	575.974
2079.84	604.979
2078.98	555.456
2078.12	587.363
2077.26	575.652
2076.4	593.013
2075.54	636.527
2074.68	627.72
2073.82	575.33
2072.96	592.681
2072.1	566.454
2071.24	572.184
2070.38	586.624
2069.52	647.519
2068.66	586.46
2067.8	571.864
2066.94	586.296
2066.07	603.626
2065.21	548.41
2064.35	586.05
2063.49	551.158
2062.63	568.483
2061.77	565.504
2060.9	623.417
2060.04	629.128
2059.18	602.951
2058.32	620.257
2057.45	582.496
2056.59	591.107
2055.73	585.23
2054.86	619.909
2054	582.17
2053.14	582.088
2052.28	602.276
2051.41	573.24
2050.55	567.37
2049.68	607.812
2048.82	619.302
2047.96	668.406
2047.09	598.877
2046.23	578.544
2045.36	601.602
2044.5	610.193
2043.63	589.867
2042.77	690.973
2041.91	644.625
2041.04	687.889
2040.17	629.995
2039.31	644.354
2038.44	600.928
2037.58	589.289
2036.71	635.419
2035.85	600.676
2034.98	620.804
2034.12	638.039
2033.25	597.537
2032.38	571.477
2031.52	683.944
2030.65	603.056
2029.78	628.937
2028.92	594.234
2028.05	614.34
2027.18	617.138
2026.32	596.867
2025.45	614.082
2024.58	613.996
2023.72	665.789
2022.85	559.069
2021.98	561.873
2021.11	645.343
2020.24	581.879
2019.38	581.798
2018.51	679.629
2017.64	653.619
2016.77	587.311
2015.9	613.136
2015.03	601.537
2014.17	592.82
2013.3	578.35
2012.43	627.177
2011.56	615.583
2010.69	592.488
2009.82	549.268
2008.95	592.321
2008.08	612.363
2007.21	629.524
2006.34	554.709
2005.47	640.843
2004.6	663.74
2003.73	617.68
2002.86	640.573
2001.99	603.146
2001.12	623.164
2000.25	565.65
1999.38	622.989
1998.51	642.995
1997.64	625.684
1996.77	637.075
1995.89	599.685
1995.02	619.683
1994.15	567.963
1993.28	610.905
1992.41	582.143
1991.54	610.734
1990.66	599.181
1989.79	607.696
1988.92	642.004
1988.05	636.183
1987.17	627.498
1986.3	627.41
1985.43	618.728
1984.56	630.098
1983.68	621.418
1982.81	624.194
1981.94	649.873
1981.06	581.082
1980.19	575.276
1979.32	558.026
1978.44	618.034
1977.57	612.226
1976.7	626.442
1975.82	677.835
1974.95	643.424
1974.07	611.882
1973.2	660.397
1972.32	571.692
1971.45	620.199
1970.57	605.823
1969.7	585.738
1968.82	599.94
1967.95	634.133
1967.07	594.059
1966.2	671.079
1965.32	622.445
1964.45	599.519
1963.57	582.308
1962.69	610.767
1961.82	639.218
1960.94	582.063
1960.07	636.185
1959.19	638.948
1958.31	584.67
1957.44	655.879
1956.56	570.249
1955.68	590.125
1954.81	598.594
1953.93	635.56
1953.05	655.419
1952.17	589.794
1951.3	586.862
1950.42	652.294
1949.54	603.786
1948.66	632.178
1947.78	603.616
1946.91	671.856
1946.03	606.293
1945.15	614.746
1944.27	657.345
1943.39	603.193
1942.51	642.936
1941.64	648.534
1940.76	611.471
1939.88	605.698
1939	651.104
1938.12	594.156
1937.24	594.073
1936.36	630.936
1935.48	619.481
1934.6	630.759
1933.72	656.238
1932.84	599.336
1931.96	630.493
1931.08	647.442
1930.2	616.119
1929.32	593.322
1928.44	630.138
1927.56	615.86
1926.67	590.234
1925.79	573.128
1924.91	612.763
1924.03	643.878
1923.15	632.443
1922.27	584.148
1921.39	615.254
1920.5	646.351
1919.62	617.916
1918.74	646.17
1917.86	648.912
1916.98	651.655
1916.09	620.401
1915.21	549.502
1914.33	617.395
1913.44	679.605
1912.56	614.39
1911.68	608.642
1910.8	619.878
1909.91	648.092
1909.03	580.088
1908.14	594.153
1907.26	647.819
1906.38	627.928
1905.49	616.527
1904.61	590.991
1903.73	653.109
1902.84	650.19
1901.96	655.752
1901.07	618.92
1900.19	632.962
1899.3	632.873
1898.42	646.908
1897.53	610.099
1896.65	590.244
1895.76	578.866
1894.88	638.075
1893.99	612.578
1893.1	598.379
1892.22	640.628
1891.33	651.824
1890.45	620.698
1889.56	626.252
1888.67	583.856
1887.79	595.054
1886.9	614.709
1886.01	620.261
1885.13	611.717
1884.24	622.905
1883.35	622.818
1882.47	642.455
1881.58	662.086
1880.69	673.261
1879.8	602.751
1878.92	630.828
1878.03	605.397
1877.14	641.912
1876.25	633.377
1875.36	633.288
1874.48	621.942
1873.59	596.53
1872.7	635.834
1871.81	638.558
1870.92	615.967
1870.03	599.007
1869.14	638.288
1868.25	638.198
1867.36	626.864
1866.47	649.261
1865.59	635.118
1864.7	657.508
1863.81	615.273
1862.92	634.85
1862.03	645.996
1861.14	595.356
1860.24	631.774
1859.35	617.648
1858.46	628.789
1857.57	670.801
1856.68	623
1855.79	600.465
1854.9	639.657
1854.01	569.439
1853.12	580.578
1852.23	611.344
1851.33	616.866
1850.44	625.189
1849.55	555.023
1848.66	630.619
1847.77	672.565
1846.87	599.619
1845.98	596.733
1845.09	577.041
1844.2	602.167
1843.3	644.088
1842.41	624.397
1841.52	604.712
1840.63	652.213
1839.73	610.139
1838.84	607.255
1837.95	643.544
1837.05	567.917
1836.16	595.809
1835.26	634.881
1834.37	662.756
1833.48	615.13
1832.58	648.591
1831.69	589.799
1830.79	592.511
1829.9	637.139
1829	578.374
1828.11	597.848
1827.21	597.764
1826.32	572.543
1825.42	586.425
1824.53	600.303
1823.63	591.843
1822.74	594.551
1821.84	608.422
1820.95	627.87
1820.05	616.621
1819.15	599.795
1818.26	638.762
1817.36	602.415
1816.46	568.868
1815.57	579.94
1814.67	632.826
1813.77	643.886
1812.88	635.435
1811.98	654.851
1811.08	626.897
1810.18	565.521
1809.29	582.153
1808.39	662.837
1807.49	618.189
1806.59	581.907
1805.7	587.393
1804.8	567.826
1803.9	640.105
1803	578.796
1802.1	626.013
1801.2	667.653
1800.3	603.585
1799.41	700.838
1798.51	603.415
1797.61	650.595
1796.71	636.603
1795.81	625.395
1794.91	630.866
1794.01	625.219
1793.11	650.136
1792.21	608.375
1791.31	613.844
1790.41	622.089
1789.51	616.448
1788.61	669.112
1787.71	619.05
1786.81	577.328
1785.91	629.976
1785.01	665.96
1784.1	588.182
1783.2	643.579
1782.3	599.11
1781.4	635.078
1780.5	657.171
1779.6	665.396
1778.7	695.795
1777.79	645.806
1776.89	618.002
1775.99	656.708
1775.09	645.533
1774.18	692.534
1773.28	620.423
1772.38	636.951
1771.48	636.862
1770.57	631.235
1769.67	639.45
1768.77	655.966
1767.86	672.478
1766.96	644.713
1766.06	652.922
1765.15	694.323
1764.25	666.567
1763.34	699.658
1762.44	682.969
1761.54	696.696
1760.63	704.89
1759.73	657.805
1758.82	643.894
1757.92	715.644
1757.01	640.95
1756.11	674.007
1755.2	671.15
1754.3	660.009
1753.39	767.601
1752.49	676.387
1751.58	679.052
1750.68	695.516
1749.77	703.696
1748.86	662.209
1747.96	720.05
1747.05	736.499
1746.14	689.508
1745.24	741.806
1744.33	675.527
1743.42	760.895
1742.52	749.761
1741.61	796.509
1740.7	724.748
1739.8	713.624
1738.89	760.357
1737.98	751.986
1737.07	749.126
1736.16	732.497
1735.26	801.228
1734.35	770.832
1733.44	715.671
1732.53	737.588
1731.62	715.469
1730.72	687.854
1729.81	745.528
1728.9	715.166
1727.99	731.566
1727.08	692.964
1726.17	756.104
1725.26	706.514
1724.35	703.665
1723.44	731.049
1722.53	785.904
1721.62	777.55
1720.71	774.693
1719.8	747.116
1718.89	686.59
1717.98	719.445
1717.07	722.089
1716.16	683.554
1715.25	724.629
1714.34	721.782
1713.43	738.145
1712.52	696.885
1711.6	751.652
1710.69	806.403
1709.78	680.135
1708.87	732.138
1707.96	751.227
1707.05	740.155
1706.13	726.346
1705.22	775.573
1704.31	745.321
1703.4	786.312
1702.48	747.85
1701.57	788.829
1700.66	785.979
1699.75	772.176
1698.83	818.61
1697.92	736.371
1697.01	788.271
1696.09	722.479
1695.18	747.004
1694.26	870.013
1693.35	744.057
1692.44	776.773
1691.52	771.193
1690.61	776.553
1689.69	721.764
1688.78	781.8
1687.86	778.956
1686.95	773.381
1686.03	773.271
1685.12	759.501
1684.2	786.71
1683.29	813.911
1682.37	873.875
1681.46	805.489
1680.54	778.075
1679.63	767.046
1678.71	813.335
1677.79	758.642
1676.88	813.105
1675.96	821.174
1675.05	766.503
1674.13	807.305
1673.21	804.463
1672.3	850.702
1671.38	809.688
1670.46	850.461
1669.54	806.733
1668.63	855.67
1667.71	803.78
1666.79	833.633
1665.87	885.27
1664.96	827.95
1664.04	849.618
1663.12	824.993
1662.2	860.267
1661.28	819.315
1660.36	881.796
1659.44	854.459
1658.53	900.592
1657.61	908.625
1656.69	816.015
1655.77	843.096
1654.85	891.923
1653.93	897.235
1653.01	872.641
1652.09	905.135
1651.17	875.111
1650.25	918.465
1649.33	915.618
1648.41	956.237
1647.49	918.075
1646.57	988.555
1645.65	969.407
1644.73	939.404
1643.81	969.133
1642.89	944.567
1641.96	966.144
1641.04	971.434
1640.12	1055.4
1639.2	1087.81
1638.28	1095.79
1637.36	1071.23
1636.43	1100.9
1635.51	1144.12
1634.59	1184.62
1633.67	1179.04
1632.75	1216.81
1631.82	1281.67
1630.9	1332.96
1629.98	1321.94
1629.05	1348.84
1628.13	1354.06
1627.21	1502.79
1626.28	1581.09
1625.36	1561.92
1624.44	1672.67
1623.51	1721.14
1622.59	1810.19
1621.67	1888.39
1620.74	1971.98
1619.82	1958.18
1618.89	2052.55
1617.97	2141.49
1617.04	2152
1616.12	2167.91
1615.19	2313.55
1614.27	2286.2
1613.34	2212.92
1612.42	2288.25
1611.49	2428.39
1610.57	2395.64
1609.64	2457.41
1608.71	2527.26
1607.79	2556.6
1606.86	2669.6
1605.94	2466.81
1605.01	2720.12
1604.08	2730.53
1603.16	2897.4
1602.23	2875.41
1601.3	3026.03
1600.38	3063.36
1599.45	3240.87
1598.52	3323.98
1597.59	3657.75
1596.67	3773.12
1595.74	3947.74
1594.81	4098.06
1593.88	4377.65
1592.95	4670.62
1592.03	4979.67
1591.1	5355.96
1590.17	5699.83
1589.24	6127.05
1588.31	6618.75
1587.38	7053.79
1586.45	7798.16
1585.52	8391.66
1584.6	8888.13
1583.67	9777.17
1582.74	10520.7
1581.81	11172.7
1580.88	12095.9
1579.95	12825.4
1579.02	13788.5
1578.09	14504.1
1577.16	14921.2
1576.23	15338.2
1575.29	15739
1574.36	15940.9
1573.43	16193.8
1572.5	16226.4
1571.57	15896.5
1570.64	15537.2
1569.71	14558
1568.78	13670.4
1567.84	12686.4
1566.91	11796.5
1565.98	10783.6
1565.05	9880.85
1564.12	8753.12
1563.18	7904.58
1562.25	7233.22
1561.32	6741.64
1560.39	6081.36
1559.45	5681.2
1558.52	5265.08
1557.59	4682.98
1556.65	4425.16
1555.72	4140.63
1554.79	3899.03
1553.85	3593.24
1552.92	3394.62
1551.99	3257.62
1551.05	2992.2
1550.12	2967.69
1549.18	2790.68
1548.25	2624.41
1547.31	2509.02
1546.38	2396.34
1545.44	2302.4
1544.51	2203.15
1543.57	2149.37
1542.64	2095.6
1541.7	2031.16
1540.77	2009.49
1539.83	1993.18
1538.9	1845.97
1537.96	1816.32
1537.02	1706.56
1536.09	1722.34
1535.15	1663.36
1534.21	1665.79
1533.28	1641.53
1532.34	1665.32
1531.4	1606.38
1530.47	1576.8
1529.53	1509.89
1528.59	1472.33
1527.66	1434.78
1526.72	1391.91
1525.78	1394.38
1524.84	1346.2
1523.9	1332.68
1522.97	1404.45
1522.03	1326.97
1521.09	1268.17
1520.15	1254.67
1519.21	1297.11
1518.27	1310.24
1517.33	1251.47
1516.4	1283.24
1515.46	1232.48
1514.52	1256.26
1513.58	1210.84
1512.64	1176.08
1511.7	1167.93
1510.76	1151.81
1509.82	1114.41
1508.88	1127.54
1507.94	1159.29
1507	1129.88
1506.06	1196.17
1505.12	1193.35
1504.18	1073.59
1503.24	1142.52
1502.29	1078.6
1501.35	1073.13
1500.41	1134.07
1499.47	1102.04
1498.53	1099.23
1497.59	1067.21
1496.65	1051.13
1495.7	1101.41
1494.76	1050.84
1493.82	1040.07
1492.88	1090.33
1491.93	1095.48
1490.99	1052.89
1490.05	1028.87
1489.11	1081.75
1488.16	1031.23
1487.22	1065.54
1486.28	1052.14
1485.33	1028.14
1484.39	1046.54
1483.45	1033.15
1482.5	1022.4
1481.56	995.774
1480.61	1019.46
1479.67	992.843
1478.72	947.699
1477.78	1119.61
1476.84	1026.82
1475.89	960.524
1474.95	992.135
1474	962.896
1473.06	997.142
1472.11	957.332
1471.17	996.858
1470.22	954.415
1469.27	993.931
1468.33	911.854
1467.38	872.084
1466.44	935.375
1465.49	919.39
1464.54	940.391
1463.6	916.486
1462.65	924.278
1461.7	992.797
1460.76	937.215
1459.81	976.676
1458.86	950.144
1457.91	889.313
1456.97	981.535
1456.02	904.889
1455.07	859.917
1454.12	867.707
1453.18	917.687
1452.23	946.559
1451.28	935.879
1450.33	933.109
1449.38	906.621
1448.43	917.032
1447.48	903.727
1446.54	887.792
1445.59	890.299
1444.64	942.845
1443.69	926.911
1442.74	929.412
1441.79	937.177
1440.84	950.204
1439.89	957.963
1438.94	899.936
1437.99	915.594
1437.04	968.076
1436.09	896.92
1435.14	923.091
1434.19	883.517
1433.24	914.94
1432.28	896.408
1431.33	933.078
1430.38	888.268
1429.43	924.928
1428.48	979.969
1427.53	987.71
1426.58	948.171
1425.62	929.653
1424.67	947.9
1423.72	900.508
1422.77	908.254
1421.81	971.116
1420.86	952.607
1419.91	939.352
1418.96	952.335
1418	1015.15
1417.05	899.608
1416.1	944.06
1415.14	1038.32
1414.19	1001.47
1413.24	935.792
1412.28	990.697
1411.33	990.555
1410.37	993.034
1409.42	1024.33
1408.46	950.84
1407.51	1013.56
1406.56	1047.46
1405.6	987.088
1404.65	1065.48
1403.69	1065.33
1402.74	1114.91
1401.78	1046.71
1400.82	988.999
1399.87	1088.27
1398.91	1054.11
1397.96	1072.26
1397	1082.57
1396.04	1066.73
1395.09	1105.79
1394.13	1079.49
1393.18	1118.54
1392.22	1149.74
1391.26	1217.5
1390.3	1144.18
1389.35	1162.3
1388.39	1175.19
1387.43	1263.81
1386.48	1255.79
1385.52	1276.5
1384.56	1229.33
1383.6	1315.28
1382.64	1335.96
1381.69	1335.77
1380.73	1374.71
1379.77	1332.78
1378.81	1507.31
1377.85	1645.29
1376.89	1592.92
1375.93	1637
1374.97	1686.29
1374.01	1777.26
1373.06	1823.9
1372.1	1979.95
1371.14	1943.2
1370.18	2156.49
1369.22	2145.76
1368.26	2218.36
1367.3	2316.97
1366.33	2248.96
1365.37	2370.96
1364.41	2581.4
1363.45	2518.59
1362.49	2669.11
1361.53	2650.52
1360.57	2860.8
1359.61	2790.19
1358.65	3002.99
1357.68	3085.74
1356.72	3111.29
1355.76	3123.84
1354.8	3172.77
1353.84	3232.07
1352.87	3252.39
1351.91	3314.26
1350.95	3415.07
1349.99	3310.72
1349.02	3232.35
1348.06	3221.51
1347.1	3381.97
1346.13	3308.82
1345.17	3261.64
1344.21	3224.85
1343.24	3335.93
1342.28	3156.49
1341.32	3200.13
1340.35	3044.09
1339.39	2963.29
1338.42	3058.77
1337.46	2801.75
1336.49	2889.45
1335.53	2741.35
1334.56	2816.09
1333.6	2779.42
1332.63	2532.98
1331.67	2408.31
1330.7	2436.45
1329.74	2368.79
1328.77	2288.21
1327.8	2236.12
1326.84	2155.58
1325.87	2173.38
1324.91	2092.87
1323.94	1960.66
1322.97	1918.99
1322.01	1861.83
1321.04	1858.98
1320.07	1783.74
1319.1	1713.7
1318.14	1747.05
1317.17	1658.94
1316.2	1599.28
1315.23	1544.8
1314.27	1658.23
1313.3	1510.79
1312.33	1484.75
1311.36	1471.63
1310.39	1432.69
1309.42	1326.67
1308.46	1354.86
1307.49	1282.42
1306.52	1289.98
1305.55	1315.59
1304.58	1207.07
1303.61	1263.63
1302.64	1173.2
1301.67	1173.04
1300.7	1157.4
1299.73	1100.53
1298.76	1172.53
1297.79	1089.91
1296.82	1159.31
1295.85	1143.69
1294.88	1073.99
1293.91	1053.23
1292.94	1068.53
1291.97	1173.93
1290.99	1001.3
1290.02	996.01
1289.05	1024.17
1288.08	1070.34
1287.11	1008.44
1286.14	1018.59
1285.16	1010.73
1284.19	987.438
1283.22	971.87
1282.25	971.731
1281.27	938.177
1280.3	930.332
1279.33	919.92
1278.36	914.65
1277.38	971.034
1276.41	924.661
1275.44	898.847
1274.46	911.557
1273.49	901.157
1272.51	939.533
1271.54	867.531
1270.57	908.467
1269.59	854.453
1268.62	895.379
1267.64	843.947
1266.67	861.779
1265.69	856.526
1264.72	830.763
1263.74	776.805
1262.77	838.214
1261.79	861.161
1260.82	855.912
1259.84	807.106
1258.87	863.352
1257.89	837.612
1256.91	827.248
1255.94	798.96
1254.96	850.054
1253.98	839.691
1253.01	849.809
1252.03	829.213
1251.05	841.889
1250.08	798.272
1249.1	736.761
1248.12	795.485
1247.14	746.779
1246.17	787.585
1245.19	805.369
1244.21	772.021
1243.23	817.917
1242.25	799.911
1241.28	853.456
1240.3	820.12
1239.32	756.139
1238.34	758.584
1237.36	748.26
1236.38	750.706
1235.4	786.341
1234.42	732.621
1233.44	768.249
1232.46	755.378
1231.49	755.27
1230.51	750.059
1229.53	803.519
1228.54	752.394
1227.56	757.386
1226.58	754.727
1225.6	741.872
1224.62	757.059
1223.64	726.366
1222.66	728.81
1221.68	741.445
1220.7	680.197
1219.72	715.76
1218.74	779.328
1217.75	720.647
1216.77	728.182
1215.79	743.351
1214.81	725.427
1213.82	766.042
1212.84	692.138
1211.86	775.999
1210.88	735.185
1209.89	742.71
1208.91	729.887
1207.93	711.983
1206.94	655.947
1205.96	775.329
1204.98	714.217
1203.99	714.114
1203.01	726.716
1202.03	752.018
1201.04	696.025
1200.06	726.403
1199.07	683.127
1198.09	721.115
1197.1	738.783
1196.12	743.754
1195.13	705.576
1194.15	725.776
1193.16	700.298
1192.18	690.05
1191.19	649.365
1190.21	684.779
1189.22	689.752
1188.23	753.04
1187.25	704.764
1186.26	684.384
1185.28	681.751
1184.29	681.653
1183.3	671.42
1182.32	691.59
1181.33	706.688
1180.34	724.314
1179.35	686.227
1178.37	703.851
1177.38	693.624
1176.39	703.648
1175.4	688.362
1174.42	652.838
1173.43	670.454
1172.44	710.832
1171.45	703.142
1170.46	685.338
1169.47	659.954
1168.48	680.084
1167.5	738.126
1166.51	717.8
1165.52	659.573
1164.53	654.425
1163.54	707.384
1162.55	757.803
1161.56	674.347
1160.57	659.098
1159.58	749.9
1158.59	686.678
1157.6	739.587
1156.61	653.671
1155.62	724.234
1154.63	706.467
1153.64	683.661
1152.64	718.876
1151.65	736.426
1150.66	675.8
1149.67	703.437
1148.68	680.647
1147.69	743.563
1146.69	715.734
1145.7	738.309
1144.71	720.566
1143.72	717.943
1142.72	702.727
1141.73	720.255
1140.74	682.381
1139.75	699.906
1138.75	719.943
1137.76	704.738
1136.77	722.252
1135.77	679.373
1134.78	714.496
1133.79	716.909
1132.79	734.411
1131.8	726.761
1130.8	724.142
1129.81	713.981
1128.81	744.042
1127.82	723.828
1126.82	708.646
1125.83	761.308
1124.83	693.369
1123.84	708.34
1122.84	720.795
1121.85	705.624
1120.85	697.99
1119.86	652.702
1118.86	750.499
1117.86	720.275
1116.87	730.208
1115.87	765.228
1114.87	719.963
1113.88	719.859
1112.88	737.31
1111.88	772.309
1110.89	732.083
1109.89	739.498
1108.89	701.795
1107.89	786.899
1106.9	751.706
1105.9	696.48
1104.9	701.39
1103.9	746.371
1102.9	721.221
1101.91	713.605
1100.91	741.041
1099.91	735.928
1098.91	695.777
1097.91	728.208
1096.91	740.613
1095.91	705.482
1094.91	760.41
1093.91	665.262
1092.91	740.185
1091.91	732.577
1090.91	717.472
1089.91	774.858
1088.91	757.252
1087.91	659.688
1086.91	732.048
1085.91	739.437
1084.91	754.316
1083.91	679.286
1082.91	771.578
1081.91	704.056
1080.91	708.947
1079.9	763.755
1078.9	723.716
1077.9	688.678
1076.9	778.393
1075.9	773.292
1074.89	713.321
1073.89	720.699
1072.89	733.062
1071.89	650.685
1070.88	737.835
1069.88	730.252
1068.88	705.227
1067.87	710.108
1066.87	777.269
1065.87	734.811
1064.86	717.271
1063.86	659.894
1062.85	684.697
1061.85	731.897
1060.85	689.477
1059.84	604.76
1058.84	744.021
1057.83	771.282
1056.83	718.93
1055.82	721.313
1054.82	681.418
1053.81	683.806
1052.8	760.779
1051.8	738.297
1050.79	730.733
1049.79	748.024
1048.78	730.522
1047.78	717.994
1046.77	717.89
1045.76	757.526
1044.76	707.749
1043.75	710.13
1042.74	732.371
1041.73	809.215
1040.73	774.351
1039.72	893.352
1038.71	818.788
1037.7	838.516
1036.7	902.886
1035.69	917.636
1034.68	877.828
1033.67	994.232
1032.66	984.172
1031.65	1041.04
1030.65	1078.06
1029.64	1070.47
1028.63	1147.12
1027.62	1114.75
1026.61	1166.61
1025.6	1186.25
1024.59	1156.36
1023.58	1153.72
1022.57	1307.03
1021.56	1381.09
1020.55	1346.25
1019.54	1336.15
1018.53	1353.28
1017.52	1447.08
1016.51	1375.15
1015.5	1456.55
1014.49	1498.38
1013.47	1522.88
1012.46	1493
1011.45	1579.28
1010.44	1586.47
1009.43	1680.13
1008.42	1674.94
1007.4	1733.98
1006.39	1746.08
1005.38	1790.28
1004.37	1871.49
1003.35	1895.91
1002.34	1962.28
1001.33	2045.9
1000.32	2085.09
999.302	2146.46
998.289	2188.09
997.275	2316.03
996.261	2397.08
995.247	2581.66
994.233	2719.35
993.219	2963
992.205	3154.81
991.19	3250.46
990.176	3580.17
989.161	3771.81
988.146	3948.62
987.131	4226.36
986.116	4395.66
985.101	4444.27
984.085	4729.19
983.069	4750.66
982.054	4693.37
981.038	4798.5
980.022	4726.45
979.005	4762.67
977.989	4766.9
976.972	4729.31
975.956	4871.25
974.939	4850.87
973.922	4783.8
972.905	4746.23
971.888	4743.09
970.87	4818.57
969.853	4820.33
968.835	4696.81
967.817	4801.74
966.799	4810.87
965.781	4758.6
964.763	4703.9
963.744	4725.31
962.725	4614.18
961.707	4669.95
960.688	4627.56
959.669	4828.06
958.65	4609.05
957.63	4704.03
956.611	4588.09
955.591	4641.37
954.571	4540.18
953.551	4598.35
952.531	4788.85
951.511	4775.9
950.491	4613.5
949.47	4669.17
948.45	4670.94
947.429	4645.78
946.408	4571.64
945.387	4690.94
944.365	4785.73
943.344	4824.2
942.322	4938.52
941.301	4918.23
940.279	4812.31
939.257	4606.14
938.235	4297.29
937.212	3917.62
936.19	3745.9
935.167	3586.44
934.145	3229.04
933.122	2989.06
932.099	2827.34
931.075	2624.13
930.052	2438.09
929.029	2159.27
928.005	1924.5
926.981	1816.78
925.957	1679.79
924.933	1528.19
923.909	1435.22
922.885	1430.13
921.86	1351.83
920.835	1300.4
919.81	1288.02
918.785	1302.46
917.76	1307.15
916.735	1214.3
915.71	1209.25
914.684	1277.33
913.658	1196.71
912.632	1218.47
911.606	1232.91
910.58	1210.81
909.554	1161.91
908.527	1166.62
907.501	1122.61
906.474	1258.8
905.447	1088.21
904.42	1148.9
903.393	1158.47
902.366	1172.9
901.338	1099.74
900.31	1187.15
899.283	1118.88
898.255	1123.58
897.226	1128.28
896.198	1115.96
895.17	1103.64
894.141	1188.55
893.112	1076.59
892.084	1125.03
891.055	1180.74
890.025	1161.14
888.996	1122.11
887.967	1112.23
886.937	1041.65
885.907	1138.61
884.877	1097.18
883.847	1121.29
882.817	1087.15
881.787	1099.13
880.756	1118.38
879.726	1076.98
878.695	1113.2
877.664	1066.96
876.633	1066.81
875.601	1015.75
874.57	1076.19
873.538	1117.24
872.507	1054.07
871.475	1053.92
870.443	1177.31
869.411	1126.27
868.378	1063.15
867.346	1029.09
866.313	1060.41
865.281	1135.3
864.248	1026.22
863.215	1062.37
862.181	1081.57
861.148	1088.67
860.114	1071.58
859.081	1119.8
858.047	1059.18
857.013	1044.52
855.979	1099.97
854.945	1097.39
853.91	1114.15
852.876	1126.07
851.841	1051.01
850.806	1046.02
849.771	995.145
848.736	1113.34
847.7	1067.3
846.665	1076.8
845.629	1033.19
844.594	1081.31
843.558	1037.71
842.522	1114.78
841.485	1051.89
840.449	1109.63
839.412	1053.99
838.376	1056.25
837.339	1113.97
836.302	1116.21
835.265	1190.78
834.227	1154.45
833.19	1122.95
832.152	1180.62
831.115	1153.95
830.077	1175.46
829.039	1124.71
828.001	1129.36
826.962	1136.42
825.924	1169.96
824.885	1177.01
823.846	1126.29
822.807	1121.32
821.768	1195.74
820.729	1099.34
819.69	1192.98
818.65	1147.12
817.61	1173.4
816.57	1101.1
815.53	1144.21
814.49	1122.41
813.45	1047.75
812.409	1119.68
811.369	1071.47
810.328	1104.94
809.287	1145.61
808.246	1116.63
807.205	1090.05
806.163	1123.5
805.122	1032.13
804.08	1099.18
803.038	1022.23
801.996	1106.05
800.954	1050.72
799.912	1098.54
798.869	1079.19
797.827	1007.1
796.784	1016.54
795.741	1006.8
794.698	968.307
793.655	982.544
792.612	994.381
791.568	1054.13
790.524	1008.46
789.481	1015.5
788.437	1051.27
787.392	1010.42
786.348	1000.69
785.304	957.46
784.259	959.714
783.214	1038.54
782.17	1002.5
781.124	961.685
780.079	940.018
779.034	978.145
777.988	989.958
776.943	949.169
775.897	903.611
774.851	924.99
773.805	896.178
772.759	936.667
771.712	938.92
770.666	876.675
769.619	912.373
768.572	866.866
767.525	864.352
766.478	916.747
765.431	933.323
764.383	849.653
763.335	839.983
762.288	930.527
761.24	877.908
760.192	915.944
759.143	829.953
758.095	834.6
757.046	820.173
755.998	865.347
754.949	831.851
753.9	898.458
752.851	807.779
751.801	807.661
750.752	807.543
749.702	902.696
748.652	804.925
747.602	804.808
746.552	814.213
745.502	792.67
744.452	863.956
743.401	859.07
742.35	861.324
741.3	820.755
740.249	789.712
739.197	799.11
738.146	846.552
737.095	848.806
736.043	798.759
734.991	793.888
733.939	838.927
732.887	872.071
731.835	838.681
730.782	829.057
729.73	805.183
728.677	790.817
727.624	828.693
726.571	852.313
725.518	845.066
724.465	773.74
723.411	780.746
722.358	844.695
721.304	863.551
720.25	880.029
719.196	839.581
718.142	808.631
717.087	794.286
716.033	836.842
714.978	810.646
713.923	891.106
712.868	857.801
711.813	855.306
710.758	883.607
709.702	874.004
708.646	779.147
707.591	892.691
706.535	838.107
705.479	859.289
704.422	833.128
703.366	859.037
702.309	892.037
701.253	896.638
700.196	891.776
699.139	927.122
698.081	884.42
697.024	917.392
695.967	947.991
694.909	912.396
693.851	976.073
692.793	973.567
691.735	982.875
690.677	961.47
689.618	963.691
688.56	1039.12
687.501	1003.55
686.442	1038.82
685.383	1010.34
684.324	1033.79
683.265	1054.88
682.205	1050.01
681.145	1089.96
680.086	1089.8
679.026	1103.79
677.965	1075.33
676.905	1183.63
675.845	1157.53
674.784	1190.36
673.723	1152.47
672.662	1149.95
671.601	1168.63
670.54	1168.46
669.479	1191.84
668.417	1179.89
667.355	1191.49
666.294	1200.73
665.232	1169.96
664.169	1219.21
663.107	1193.15
662.045	1178.85
660.982	1131.63
659.919	1082.06
658.856	1100.72
657.793	1107.61
656.73	1069.83
655.667	1074.37
654.603	984.894
653.539	1111.66
652.475	1130.3
651.411	1031.45
650.347	1073.59
649.283	1052.29
648.218	1014.56
647.154	1066.07
646.089	1068.26
645.024	1061.06
643.959	1051.52
642.893	1065.44
641.828	1088.75
640.762	1046.36
639.697	1086.09
638.631	1055.44
637.565	1067.01
636.498	1080.92
635.432	1050.28
634.366	1094.66
633.299	1035.91
632.232	1066.22
631.165	1049.67
630.098	1112.76
629.03	1098.55
627.963	1086.67
626.895	1189.55
625.828	1165.96
624.76	1250.06
623.692	1210.09
622.623	1308.2
621.555	1230.79
620.486	1303.14
619.418	1302.94
618.349	1262.99
617.28	1267.48
616.21	1309.38
615.141	1302.18
614.072	1182.77
613.002	1140.53
611.932	1163.73
610.862	1140.2
609.792	1114.33
608.722	1090.81
607.651	1114
606.58	1144.2
605.51	1062.31
604.439	994.458
603.368	1043.33
602.296	1052.51
601.225	968.352
600.153	1007.87
599.082	1033.38
598.01	979.587
596.938	951.459
595.866	958.314
594.793	974.492
593.721	946.377
592.648	948.569
591.575	957.75
590.502	1011.2
589.429	943.491
588.356	922.389
587.282	936.226
586.209	971.017
585.135	928.966
584.061	989.355
582.987	944.986
581.913	905.284
580.838	963.323
579.764	958.528
578.689	970.018
577.614	1004.76
576.539	948.803
575.464	960.289
574.389	1043.84
573.313	941.41
572.237	964.513
571.162	1052.67
570.086	1045.55
569.009	1001.26
567.933	1089.37
566.857	1079.92
565.78	1102.99
564.703	1160.87
563.626	1128.2
562.549	1169.81
561.472	1195.16
560.394	1234.43
559.317	1213.37
558.239	1229.43
557.161	1389.29
556.083	1333.42
555.005	1467.71
553.927	1374.76
552.848	1425.55
551.769	1457.79
550.691	1587.34
549.612	1540.77
548.532	1679.54
547.453	1762.68
546.374	1827.27
545.294	1942.78
544.214	1954.07
543.134	2083.41
542.054	2203.46
540.974	2355.88
539.893	2519.81
538.813	2632.81
537.732	2879.93
536.651	3092.29
535.57	3478.02
534.489	3750.35
533.407	4232.97
532.326	4893.43
531.244	5588.37
530.162	6394.01
529.08	7800.15
527.998	9550.08
526.916	12193.4
525.833	16307
524.751	23312.8
523.668	36596.3
522.585	63343.2
521.502	113152
520.418	146493
519.335	146472
518.251	127452
517.167	75536
516.083	44008.1
514.999	27541.1
513.915	19072.8
512.831	13836.8
511.746	10762.2
510.661	8465.1
509.576	6926.86
508.491	6004.23
507.406	4939.05
506.321	4362.49
505.235	3896.65
504.149	3576.01
503.064	3220.92
501.978	2969.53
500.891	2715.92
499.805	2669.49
498.719	2459.71
497.632	2309.81
496.545	2148.45
495.458	2081.43
494.371	2037.43
493.284	1968.16
492.196	2018.44
491.108	1930.8
490.021	1969.58
488.933	1796.95
487.845	1677.21
486.756	1683.86
485.668	1568.76
484.579	1540.97
483.491	1579.78
482.402	1540.52
481.313	1521.93
480.223	1413.83
479.134	1482.46
478.044	1431.77
476.955	1342.08
475.865	1339.59
474.775	1376.09
473.684	1300.21
472.594	1306.9
471.504	1231.05
470.413	1329.43
469.322	1242.15
468.231	1248.84
467.14	1241.78
466.048	1218.69
464.957	1140.64
463.865	1151.92
462.774	1176.93
461.682	1117.24
460.589	1087.31
459.497	1027.64
458.405	1057.24
457.312	1034.2
456.219	1114.12
455.126	1166.57
454.033	1170.97
452.94	1262.26
451.846	1250.65
450.753	1234.46
449.659	1289.13
448.565	1252.38
447.471	1357.3
446.377	1343.39
445.282	1359.18
444.188	1402.38
443.093	1431.86
441.998	1479.6
440.903	1438.29
439.808	1472.31
438.713	1520.02
437.617	1567.72
436.521	1638.22
435.425	1649.38
434.329	1646.86
433.233	1646.61
432.137	1621.29
431.04	1634.73
429.944	1611.69
428.847	1645.64
427.75	1622.61
426.653	1606.42
425.555	1590.23
424.458	1640.11
423.36	1617.09
422.262	1646.46
421.164	1662.15
420.066	1554.91
418.968	1593.37
417.87	1568.1
416.771	1579.25
415.672	1528.96
414.573	1540.11
413.474	1542.15
412.375	1537.37
411.275	1568.98
410.176	1589.21
409.076	1638.99
407.976	1618.29
406.876	1554.42
405.776	1570.09
404.675	1606.21
403.575	1528.74
402.474	1580.75
401.373	1523.74
400.272	1525.79
399.171	1577.78
398.069	1532.15
396.968	1606.81
395.866	1570.27
394.764	1526.93
393.662	1601.56
392.56	1560.5
391.458	1589.75
390.355	1603.12
389.252	1648.22
388.149	1543.71
387.046	1711.2
385.943	1565.91
384.84	1615.53
383.736	1665.13
382.633	1667.14
381.529	1675.96
380.425	1707.41
379.321	1718.48
378.216	1734.07
377.112	1636.48
376.007	1667.92
374.902	1658.63
373.797	1723.99
372.692	1746.36
371.587	1703.12
370.481	1682.52
369.376	1736.54
368.27	1745.32
367.164	1758.62
366.058	1751.58
364.951	1758.1
363.845	1800.77
362.738	1789.21
361.632	1813.79
360.525	1738.99
359.417	1826.8
358.31	1729.45
357.203	1765.31
356.095	1825.99
354.987	1748.99
353.879	1861.55
352.771	1816.15
351.663	1876.79
350.555	1844.93
349.446	1916.82
348.337	1952.61
347.228	1853.13
346.119	1873.14
345.01	2001.32
343.9	1861.32
342.791	1874.56
341.681	1878.78
340.571	2013.65
339.461	1952.55
338.351	2028.81
337.24	1996.99
336.13	2023.71
335.019	2126.94
333.908	2014.11
332.797	2056.56
331.686	2054
330.574	2157.17
329.463	2141.11
328.351	2158.78
327.239	2192.18
326.127	2200.85
325.015	2144.33
323.902	2155.25
322.79	2251.55
321.677	2201.79
320.564	2205.95
319.451	2306.7
318.338	2353.52
317.225	2434
316.111	2433.64
314.997	2365.94
313.883	2446.38
312.769	2513.34
311.655	2566.82
310.541	2647.2
309.426	2754.47
308.312	2772
307.197	2883.71
306.082	3013.32
304.966	3098.06
303.851	3283.63
302.735	3469.15
301.62	3322.99
300.504	3369.54
299.388	3306.32
