3199.11	290.695
3198.41	269.425
3197.7	276.477
3197	287.072
3196.29	251.596
3195.59	279.907
3194.88	265.698
3194.17	265.662
3193.47	265.626
3192.76	290.378
3192.06	276.175
3191.35	265.517
3190.64	286.719
3189.94	283.141
3189.23	304.335
3188.52	268.91
3187.82	290.1
3187.11	318.359
3186.4	275.874
3185.7	293.518
3184.99	304.086
3184.28	282.832
3183.58	286.328
3182.87	314.564
3182.16	307.453
3181.45	296.811
3180.75	257.908
3180.04	264.938
3179.33	275.497
3178.62	261.334
3177.91	324.857
3177.21	289.507
3176.5	257.696
3175.79	268.25
3175.08	303.505
3174.37	285.82
3173.66	306.95
3172.96	292.797
3172.25	285.703
3171.54	264.504
3170.83	243.31
3170.12	278.534
3169.41	331.375
3168.7	257.31
3167.99	281.945
3167.28	278.382
3166.57	260.728
3165.86	292.398
3165.15	274.746
3164.44	235.967
3163.73	264.107
3163.02	271.112
3162.31	264.034
3161.6	242.878
3160.89	274.521
3160.18	274.483
3159.47	253.335
3158.76	263.854
3158.05	274.371
3157.34	281.368
3156.63	256.713
3155.92	281.291
3155.21	277.737
3154.5	298.79
3153.78	298.749
3153.07	288.165
3152.36	270.557
3151.65	259.981
3150.94	242.381
3150.23	312.594
3149.51	249.339
3148.8	277.395
3148.09	256.292
3147.38	252.747
3146.67	287.811
3145.95	298.3
3145.24	287.733
3144.53	252.609
3143.82	235.034
3143.1	294.63
3142.39	277.054
3141.68	291.043
3140.96	298.015
3140.25	301.48
3139.54	276.903
3138.82	318.921
3138.11	227.769
3137.4	280.293
3136.68	252.229
3135.97	297.73
3135.26	245.156
3134.54	283.642
3133.83	262.595
3133.11	276.563
3132.4	273.025
3131.69	311.486
3130.97	272.95
3130.26	293.906
3129.54	293.866
3128.83	230.863
3128.11	258.811
3127.4	258.776
3126.68	307.691
3125.97	279.681
3125.25	255.174
3124.54	297.08
3123.82	258.599
3123.11	321.457
3122.39	296.958
3121.68	275.959
3120.96	282.906
3120.24	258.422
3119.53	206.011
3118.81	261.843
3118.1	314.169
3117.38	300.164
3116.66	265.225
3115.95	258.21
3115.23	261.664
3114.51	306.977
3113.8	279.032
3113.08	296.431
3112.36	205.73
3111.65	282.404
3110.93	264.936
3110.21	271.87
3109.49	271.833
3108.78	243.92
3108.06	271.759
3107.34	278.689
3106.62	292.583
3105.91	264.682
3105.19	299.468
3104.47	254.165
3103.75	295.905
3103.03	309.787
3102.31	264.501
3101.6	320.142
3100.88	267.908
3100.16	327.012
3099.44	288.705
3098.72	253.887
3098	253.852
3097.28	288.587
3096.56	260.736
3095.85	291.984
3095.13	309.322
3094.41	260.629
3093.69	284.915
3092.97	250.135
3092.25	253.575
3091.53	236.174
3090.81	260.451
3090.09	288.193
3089.37	277.738
3088.65	274.229
3087.93	312.37
3087.21	260.273
3086.49	274.116
3085.77	253.263
3085.05	267.104
3084.32	305.22
3083.6	256.627
3082.88	239.254
3082.16	301.627
3081.44	280.787
3080.72	284.215
3080	273.779
3079.28	287.602
3078.55	308.351
3077.83	273.667
3077.11	277.093
3076.39	277.055
3075.67	277.017
3074.95	256.206
3074.22	318.483
3073.5	304.594
3072.78	263.023
3072.06	283.749
3071.33	294.09
3070.61	280.212
3069.89	266.338
3069.16	259.384
3068.44	276.639
3067.72	255.856
3067	266.192
3066.27	304.178
3065.55	290.312
3064.83	293.728
3064.1	279.867
3063.38	283.283
3062.65	283.245
3061.93	276.299
3061.21	272.807
3060.48	296.94
3059.76	265.828
3059.03	251.984
3058.31	296.818
3057.59	276.072
3056.86	265.683
3056.14	255.297
3055.41	255.262
3054.69	282.819
3053.96	272.435
3053.24	289.638
3052.51	275.808
3051.79	230.957
3051.06	279.179
3050.34	327.387
3049.61	272.211
3048.88	282.509
3048.16	310.029
3047.43	289.321
3046.71	258.287
3045.98	296.128
3045.25	299.531
3044.53	268.508
3043.8	285.681
3043.08	251.227
3042.35	278.721
3041.62	292.445
3040.9	244.244
3040.17	282.046
3039.44	282.007
3038.72	268.214
3037.99	254.425
3037.26	261.266
3036.53	247.481
3035.81	295.562
3035.08	316.139
3034.35	288.609
3033.62	288.57
3032.9	271.356
3032.17	291.925
3031.44	285.017
3030.71	291.845
3029.98	315.836
3029.25	274.603
3028.53	367.231
3027.8	240.212
3027.07	284.783
3026.34	284.744
3025.61	257.264
3024.88	277.807
3024.15	277.769
3023.42	277.731
3022.7	322.261
3021.97	291.366
3021.24	274.19
3020.51	298.14
3019.78	301.526
3019.05	304.911
3018.32	291.167
3017.59	294.552
3016.86	294.512
3016.13	267.079
3015.4	287.584
3014.67	280.698
3013.94	256.701
3013.21	263.51
3012.48	311.379
3011.74	260.017
3011.01	246.298
3010.28	314.671
3009.55	259.91
3008.82	324.843
3008.09	259.839
3007.36	266.64
3006.63	263.186
3005.9	276.82
3005.16	297.285
3004.43	314.327
3003.7	290.371
3002.97	297.162
3002.24	273.215
3001.5	239.031
3000.77	249.241
3000.04	300.414
2999.31	273.066
2998.57	354.937
2997.84	286.641
2997.11	279.778
2996.38	307.031
2995.64	300.167
2994.91	259.2
2994.18	289.855
2993.44	327.32
2992.71	313.639
2991.98	306.779
2991.24	310.145
2990.51	272.618
2989.78	265.766
2989.04	289.577
2988.31	296.35
2987.57	299.715
2986.84	299.674
2986.11	340.492
2985.37	299.592
2984.64	302.955
2983.9	299.51
2983.17	323.29
2982.43	279.012
2981.7	326.604
2980.96	289.141
2980.23	299.305
2979.49	295.863
2978.76	316.224
2978.02	336.58
2977.29	292.342
2976.55	322.892
2975.82	350.035
2975.08	363.579
2974.35	312.567
2973.61	339.7
2972.87	322.671
2972.14	302.25
2971.4	329.374
2970.66	332.724
2969.93	336.073
2969.19	308.873
2968.45	383.493
2967.72	342.722
2966.98	305.354
2966.24	322.274
2965.51	359.54
2964.77	335.751
2964.03	386.569
2963.3	362.783
2962.56	339.003
2961.82	345.736
2961.08	305.019
2960.34	291.423
2959.61	315.1
2958.87	335.383
2958.13	352.273
2957.39	355.612
2956.65	355.563
2955.92	341.971
2955.18	318.227
2954.44	352.032
2953.7	348.6
2952.96	351.936
2952.22	331.586
2951.48	338.307
2950.74	348.408
2950.01	328.068
2949.27	355.076
2948.53	371.934
2947.79	344.837
2947.05	351.55
2946.31	351.502
2945.57	381.868
2944.83	368.3
2944.09	364.871
2943.35	297.262
2942.61	364.771
2941.87	368.098
2941.13	300.516
2940.39	357.869
2939.65	371.323
2938.91	347.645
2938.17	394.844
2937.42	384.667
2936.68	310.391
2935.94	350.828
2935.2	377.763
2934.46	394.574
2933.72	391.148
2932.98	343.893
2932.24	391.04
2931.49	313.464
2930.75	337.011
2930.01	363.922
2929.27	336.919
2928.53	336.873
2927.78	357.036
2927.04	356.987
2926.3	333.367
2925.56	313.12
2924.81	326.543
2924.07	370.255
2923.33	383.667
2922.58	336.504
2921.84	370.103
2921.1	296.042
2920.36	326.274
2919.61	329.593
2918.87	306.008
2918.13	336.227
2917.38	389.97
2916.64	339.496
2915.89	349.532
2915.15	349.484
2914.41	346.076
2913.66	309.074
2912.92	349.341
2912.17	302.272
2911.43	335.812
2910.68	352.555
2909.94	325.649
2909.19	295.393
2908.45	335.628
2907.7	359.073
2906.96	328.825
2906.21	352.265
2905.47	301.9
2904.72	318.628
2903.98	355.473
2903.23	291.716
2902.49	358.728
2901.74	345.271
2901	321.761
2900.25	345.176
2899.5	311.621
2898.76	348.432
2898.01	338.334
2897.26	318.192
2896.52	318.148
2895.77	321.453
2895.02	328.105
2894.28	321.365
2893.53	338.056
2892.78	311.237
2892.04	334.617
2891.29	344.608
2890.54	294.382
2889.79	334.479
2889.05	284.268
2888.3	344.419
2887.55	354.402
2886.8	330.953
2886.06	320.88
2885.31	314.152
2884.56	297.401
2883.81	294.019
2883.06	287.297
2882.31	307.299
2881.57	354.014
2880.82	313.893
2880.07	333.883
2879.32	310.469
2878.57	337.13
2877.82	293.696
2877.07	357.059
2876.32	306.962
2875.57	306.92
2874.82	300.207
2874.07	300.165
2873.33	340.141
2872.58	316.754
2871.83	356.716
2871.08	360.001
2870.33	349.953
2869.58	303.251
2868.82	363.185
2868.07	303.168
2867.32	359.754
2866.57	316.407
2865.82	349.665
2865.07	319.65
2864.32	292.972
2863.57	386.137
2862.82	316.19
2862.07	312.819
2861.32	306.121
2860.56	299.425
2859.81	359.261
2859.06	319.299
2858.31	292.65
2857.56	362.438
2856.81	315.843
2856.05	342.393
2855.3	352.317
2854.55	335.653
2853.8	388.772
2853.04	355.495
2852.29	328.87
2851.54	332.147
2850.79	325.459
2850.03	351.979
2849.28	318.73
2848.53	302.088
2847.77	358.472
2847.02	331.873
2846.27	335.146
2845.51	371.596
2844.76	295.246
2844.01	364.86
2843.25	338.279
2842.5	324.968
2841.75	338.186
2840.99	278.468
2840.24	331.464
2839.48	308.219
2838.73	377.765
2837.97	351.207
2837.22	361.097
2836.46	341.173
2835.71	427.236
2834.95	380.817
2834.2	397.32
2833.44	364.16
2832.69	360.8
2831.93	364.06
2831.18	373.937
2830.42	390.429
2829.67	380.451
2828.91	344.013
2828.16	390.269
2827.4	370.374
2826.64	423.226
2825.89	347.13
2825.13	396.665
2824.37	386.696
2823.62	373.424
2822.86	356.852
2822.1	370.018
2821.35	356.754
2820.59	336.888
2819.83	356.656
2819.08	373.116
2818.32	389.572
2817.56	359.81
2816.8	363.061
2816.05	396.012
2815.29	382.759
2814.53	362.911
2813.77	428.836
2813.02	382.602
2812.26	392.442
2811.5	366.01
2810.74	425.304
2809.98	408.763
2809.22	369.155
2808.47	411.946
2807.71	359.168
2806.95	411.833
2806.19	444.719
2805.43	388.664
2804.67	408.37
2803.91	405.021
2803.15	375.334
2802.39	427.954
2801.63	391.688
2800.87	391.635
2800.11	450.811
2799.35	421.138
2798.59	430.949
2797.83	401.287
2797.07	417.676
2796.31	430.772
2795.55	417.561
2794.79	440.516
2794.03	427.307
2793.27	453.541
2792.51	417.332
2791.75	433.702
2790.99	433.643
2790.23	502.562
2789.47	456.514
2788.71	436.748
2787.94	479.372
2787.18	472.74
2786.42	433.285
2785.66	498.866
2784.9	452.856
2784.14	485.605
2783.37	498.661
2782.61	432.988
2781.85	488.684
2781.09	524.689
2780.32	459.04
2779.56	472.091
2778.8	488.416
2778.04	540.789
2777.27	543.991
2776.51	488.214
2775.75	537.289
2774.98	527.388
2774.22	556.793
2773.46	592.74
2772.69	517.348
2771.93	599.124
2771.17	631.777
2770.4	648.055
2769.64	628.33
2768.87	602.067
2768.11	660.874
2767.35	647.698
2766.58	614.902
2765.82	709.656
2765.05	660.511
2764.29	702.922
2763.52	787.818
2762.76	738.682
2761.99	826.818
2761.23	803.832
2760.46	800.454
2759.7	846.078
2758.93	924.352
2758.17	878.503
2757.4	979.609
2756.64	1008.86
2755.87	963.017
2755.1	1106.5
2754.34	1076.98
2753.57	1226.93
2752.81	1256.13
2752.04	1282.05
2751.27	1366.68
2750.51	1382.8
2749.74	1346.74
2748.97	1584.57
2748.21	1574.57
2747.44	1580.87
2746.67	1743.61
2745.9	1671.68
2745.14	1795.26
2744.37	1863.42
2743.6	1983.69
2742.83	2029.01
2742.07	2093.86
2741.3	2031.71
2740.53	2184.44
2739.76	2216.69
2739	2340.06
2738.23	2326.72
2737.46	2427.26
2736.69	2550.55
2735.92	2589.24
2735.15	2481.55
2734.38	2653.56
2733.62	2773.5
2732.85	2805.63
2732.08	2779.24
2731.31	2824.36
2730.54	2807.72
2729.77	3031.53
2729	2813.45
2728.23	3017.71
2727.46	2926.35
2726.69	2984.4
2725.92	2831.38
2725.15	2730.35
2724.38	2898.77
2723.61	2940.56
2722.84	2953.14
2722.07	3059.81
2721.3	2926.37
2720.53	2818.92
2719.76	2805.56
2718.99	2821.39
2718.22	2824.24
2717.44	2853.03
2716.67	2739.18
2715.9	2849.01
2715.13	2722.23
2714.36	2890.35
2713.59	2753.88
2712.82	2714.62
2712.04	2788.75
2711.27	2879.04
2710.5	2726.46
2709.73	2645.14
2708.95	2813.11
2708.18	2728.57
2707.41	2656.99
2706.64	2744
2705.86	2701.56
2705.09	2655.9
2704.32	2765.5
2703.55	2664.87
2702.77	2606.3
2702	2686.77
2701.23	2747.82
2700.45	2592.29
2699.68	2685.66
2698.91	2659.44
2698.13	2565.37
2697.36	2619.94
2696.58	2613.12
2695.81	2638.59
2695.04	2544.58
2694.26	2579.75
2693.49	2663.33
2692.71	2553.22
2691.94	2601.28
2691.16	2575.1
2690.39	2574.75
2689.61	2580.85
2688.84	2548.23
2688.06	2531.76
2687.29	2515.28
2686.51	2414.99
2685.74	2417.88
2684.96	2375.64
2684.19	2372.09
2683.41	2345.98
2682.63	2319.88
2681.86	2129.49
2681.08	2164.63
2680.31	2077.37
2679.53	2019.12
2678.75	2051.04
2677.98	1867.25
2677.2	1915.28
2676.42	1924.67
2675.65	1901.88
2674.87	1795.43
2674.09	1727.63
2673.32	1682.35
2672.54	1653.18
2671.76	1669.03
2670.98	1536.97
2670.21	1575.33
2669.43	1581.55
2668.65	1555.61
2667.87	1417.21
2667.09	1516.63
2666.32	1436.1
2665.54	1468.03
2664.76	1387.53
2663.98	1252.46
2663.2	1428.89
2662.42	1329.16
2661.64	1290.46
2660.87	1197.2
2660.09	1280.48
2659.31	1289.93
2658.53	1193.5
2657.75	1235.04
2656.97	1193.17
2656.19	1170.56
2655.41	1231.32
2654.63	1125.35
2653.85	1134.81
2653.07	1137.86
2652.29	1179.36
2651.51	1086.28
2650.73	1127.78
2649.95	1153.25
2649.17	1111.45
2648.39	1066.46
2647.61	1114.35
2646.83	1030.95
2646.05	1088.43
2645.26	1040.27
2644.48	1097.73
2643.7	1011.18
2642.92	1043.04
2642.14	1049.29
2641.36	969.18
2640.58	1026.61
2639.79	1026.47
2639.01	991.16
2638.23	955.858
2637.45	968.512
2636.67	968.379
2635.88	920.312
2635.1	964.917
2634.32	932.837
2633.54	923.126
2632.75	910.224
2631.97	859.005
2631.19	935.516
2630.4	909.847
2629.62	887.378
2628.84	877.681
2628.05	823.31
2627.27	880.629
2626.49	854.986
2625.7	829.349
2624.92	778.205
2624.14	832.31
2623.35	765.237
2622.57	809.764
2621.78	726.774
2621	733.048
2620.21	723.387
2619.43	713.729
2618.65	656.285
2617.86	649.824
2617.08	659.289
2616.29	687.859
2615.51	633.634
2614.72	639.914
2613.93	633.459
2613.15	662.017
2612.36	572.82
2611.58	601.378
2610.79	601.295
2610.01	604.393
2609.22	499.351
2608.43	534.264
2607.65	537.37
2606.86	502.324
2606.07	569.01
2605.29	575.288
2604.5	508.472
2603.71	495.691
2602.93	498.8
2602.14	508.261
2601.35	501.839
2600.57	438.254
2599.78	476.298
2598.99	419.084
2598.2	431.724
2597.42	472.927
2596.63	431.605
2595.84	463.277
2595.05	434.659
2594.26	475.838
2593.48	440.882
2592.69	450.335
2591.9	396.367
2591.11	424.847
2590.32	396.258
2589.53	399.373
2588.75	481.717
2587.96	399.263
2587.17	408.713
2586.38	408.656
2585.59	395.93
2584.8	414.877
2584.01	424.32
2583.22	360.939
2582.43	414.706
2581.64	401.987
2580.85	405.097
2580.06	379.726
2579.27	344.87
2578.48	385.948
2577.69	370.079
2576.9	379.516
2576.11	404.761
2575.32	357.279
2574.53	373.036
2573.74	341.376
2572.95	379.254
2572.15	398.162
2571.36	363.351
2570.57	338.028
2569.78	347.458
2568.99	318.985
2568.2	369.467
2567.41	353.629
2566.61	375.678
2565.82	372.47
2565.03	344.014
2564.24	347.122
2563.44	378.626
2562.65	394.348
2561.86	365.904
2561.07	362.7
2560.27	378.417
2559.48	368.906
2558.69	346.786
2557.9	381.412
2557.1	359.298
2556.31	349.794
2555.52	349.746
2554.72	362.299
2553.93	352.799
2553.13	346.451
2552.34	365.298
2551.55	358.95
2550.75	314.825
2549.96	314.782
2549.16	299.001
2548.37	365.046
2547.57	314.651
2546.78	349.215
2545.99	342.875
2545.19	320.811
2544.4	339.636
2543.6	349.022
2542.81	326.966
2542.01	304.917
2541.21	314.304
2540.42	380.255
2539.62	298.506
2538.83	320.457
2538.03	336.119
2537.24	329.791
2536.44	348.588
2535.64	342.26
2534.85	304.538
2534.05	323.33
2533.25	320.147
2532.46	364.039
2531.66	291.818
2530.86	389.037
2530.07	348.203
2529.27	357.564
2528.47	351.243
2527.68	354.33
2526.88	354.281
2526.08	351.097
2525.28	357.317
2524.49	338.464
2523.69	341.551
2522.89	322.705
2522.09	366.518
2521.29	360.203
2520.5	338.23
2519.7	356.972
2518.9	366.315
2518.1	378.786
2517.3	328.653
2516.5	341.126
2515.7	362.983
2514.9	322.26
2514.11	391.038
2513.31	365.961
2512.51	350.273
2511.71	365.859
2510.91	353.303
2510.11	365.758
2509.31	346.953
2508.51	393.785
2507.71	306.235
2506.91	359.307
2506.11	331.142
2505.31	352.961
2504.51	381.02
2503.71	346.618
2502.91	418.382
2502.1	352.766
2501.3	387.052
2500.5	349.547
2499.7	358.86
2498.9	393.132
2498.1	371.24
2497.3	321.281
2496.5	349.305
2495.69	364.849
2494.89	305.558
2494.09	383.453
2493.29	352.229
2492.49	380.23
2491.68	370.829
2490.88	355.199
2490.08	339.573
2489.28	383.135
2488.47	348.822
2487.67	426.626
2486.87	361.18
2486.07	386.036
2485.26	398.434
2484.46	395.266
2483.66	385.876
2482.85	401.38
2482.05	398.213
2481.24	401.269
2480.44	463.417
2479.64	460.243
2478.83	345.134
2478.03	441.462
2477.22	450.726
2476.42	432.016
2475.62	463.032
2474.81	379.075
2474.01	391.449
2473.2	400.714
2472.4	431.717
2471.59	440.974
2470.79	456.438
2469.98	487.42
2469.18	375.603
2468.37	499.7
2467.56	437.565
2466.76	487.151
2465.95	515.005
2465.15	446.69
2464.34	468.339
2463.53	493.083
2462.73	468.209
2461.92	443.342
2461.12	402.982
2460.31	421.523
2459.5	461.752
2458.7	418.308
2457.89	436.839
2457.08	473.951
2456.27	449.107
2455.47	418.076
2454.66	402.536
2453.85	442.729
2453.04	417.903
2452.24	489.033
2451.43	427.071
2450.62	427.012
2449.81	377.451
2449.01	426.894
2448.2	408.277
2447.39	479.349
2446.58	435.993
2445.77	466.85
2444.96	408.051
2444.15	392.54
2443.34	395.576
2442.54	398.611
2441.73	392.377
2440.92	376.877
2440.11	420.066
2439.3	398.39
2438.49	379.808
2437.68	398.28
2436.87	388.964
2436.06	354.957
2435.25	373.425
2434.44	327.087
2433.63	342.469
2432.82	373.27
2432.01	367.049
2431.2	351.578
2430.39	336.112
2429.58	354.564
2428.76	308.274
2427.95	295.902
2427.14	351.335
2426.33	332.797
2425.52	292.698
2424.71	391.237
2423.9	289.537
2423.08	289.497
2422.27	307.932
2421.46	329.442
2420.65	310.925
2419.84	292.414
2419.02	292.374
2418.21	295.41
2417.4	283.062
2416.59	313.786
2415.77	273.756
2414.96	252.19
2414.15	270.605
2413.33	289.015
2412.52	245.937
2411.71	282.788
2410.89	328.849
2410.08	285.782
2409.27	301.105
2408.45	270.343
2407.64	279.52
2406.83	270.268
2406.01	279.443
2405.2	294.756
2404.38	288.575
2403.57	282.396
2402.75	260.873
2401.94	257.768
2401.12	266.937
2400.31	236.222
2399.49	263.796
2398.68	248.425
2397.86	275.989
2397.05	260.62
2396.23	226.861
2395.42	269.744
2394.6	260.512
2393.79	275.798
2392.97	257.375
2392.15	235.895
2391.34	260.367
2390.52	312.397
2389.71	293.98
2388.89	272.506
2388.07	275.53
2387.26	284.675
2386.44	269.332
2385.62	290.716
2384.81	260.078
2383.99	235.568
2383.17	272.242
2382.35	214.093
2381.54	244.644
2380.72	296.59
2379.9	256.805
2379.08	241.485
2378.26	293.41
2377.45	262.81
2376.63	250.551
2375.81	287.178
2374.99	256.591
2374.17	229.068
2373.35	195.444
2372.54	271.751
2371.72	259.502
2370.9	253.361
2370.08	262.482
2369.26	286.859
2368.44	253.255
2367.62	280.678
2366.8	222.681
2365.98	259.25
2365.16	286.66
2364.34	243.932
2363.52	225.606
2362.7	280.444
2361.88	207.256
2361.06	225.512
2360.24	234.622
2359.42	283.335
2358.6	258.926
2357.78	264.982
2356.96	255.809
2356.14	237.504
2355.32	264.871
2354.49	252.658
2353.67	210.012
2352.85	240.415
2352.03	261.682
2351.21	252.518
2350.39	270.735
2349.56	285.905
2348.74	237.207
2347.92	246.297
2347.1	258.423
2346.28	282.706
2345.45	282.667
2344.63	246.16
2343.81	291.704
2342.98	252.168
2342.16	267.321
2341.34	233.874
2340.51	236.878
2339.69	245.955
2338.87	245.921
2338.04	279.278
2337.22	257.993
2336.4	242.783
2335.57	242.75
2334.75	251.818
2333.93	260.883
2333.1	303.311
2332.28	251.713
2331.45	266.839
2330.63	284.993
2329.8	309.205
2328.98	242.48
2328.15	257.599
2327.33	254.533
2326.5	254.498
2325.68	257.492
2324.85	287.745
2324.03	266.506
2323.2	257.385
2322.38	254.321
2321.55	236.123
2320.72	233.063
2319.9	214.872
2319.07	248.128
2318.25	263.221
2317.42	263.185
2316.59	254.074
2315.77	305.451
2314.94	226.789
2314.11	263.038
2313.28	269.048
2312.46	272.033
2311.63	281.062
2310.8	259.87
2309.98	265.877
2309.15	217.506
2308.32	238.619
2307.49	220.465
2306.66	280.828
2305.84	262.673
2305.01	211.317
2304.18	250.527
2303.35	226.348
2302.52	271.58
2301.69	253.439
2300.87	256.421
2300.04	223.206
2299.21	214.127
2298.38	253.298
2297.55	247.233
2296.72	235.14
2295.89	226.065
2295.06	256.171
2294.23	238.055
2293.4	241.035
2292.57	195.814
2291.74	283.138
2290.91	219.853
2290.08	252.946
2289.25	201.727
2288.42	279.97
2287.59	246.821
2286.76	258.825
2285.93	255.78
2285.1	210.613
2284.27	288.8
2283.44	240.633
2282.61	246.615
2281.77	222.524
2280.94	288.64
2280.11	237.493
2279.28	273.53
2278.45	273.492
2277.62	264.439
2276.78	204.311
2275.95	255.353
2275.12	249.31
2274.29	285.315
2273.45	246.238
2272.62	222.184
2271.79	246.169
2270.96	258.142
2270.12	282.116
2269.29	222.06
2268.46	240.032
2267.62	245.998
2266.79	239.965
2265.96	284.919
2265.12	239.898
2264.29	260.853
2263.45	254.821
2262.62	230.805
2261.79	206.797
2260.95	284.681
2260.12	251.683
2259.28	227.681
2258.45	221.659
2257.61	254.573
2256.78	227.586
2255.94	242.525
2255.11	224.529
2254.27	230.484
2253.44	245.417
2252.6	260.345
2251.77	254.325
2250.93	224.373
2250.1	257.245
2249.26	242.255
2248.42	224.279
2247.59	251.158
2246.75	260.091
2245.92	251.088
2245.08	274.963
2244.24	227.111
2243.41	197.201
2242.57	230.036
2241.73	250.913
2240.89	221.012
2240.06	235.912
2239.22	244.837
2238.38	250.773
2237.55	223.874
2236.71	235.781
2235.87	247.684
2235.03	262.569
2234.19	247.616
2233.36	259.513
2232.52	235.617
2231.68	202.781
2230.84	217.661
2230	259.368
2229.16	277.217
2228.32	235.453
2227.49	220.52
2226.65	238.367
2225.81	286
2224.97	256.173
2224.13	282.942
2223.29	268.013
2222.45	208.426
2221.61	282.824
2220.77	226.228
2219.93	223.22
2219.09	273.778
2218.25	252.912
2217.41	246.927
2216.57	240.943
2215.73	240.909
2214.89	237.902
2214.05	252.736
2213.21	246.755
2212.37	249.693
2211.52	249.658
2210.68	270.425
2209.84	231.761
2209	270.35
2208.16	237.637
2207.32	243.544
2206.47	213.814
2205.63	270.199
2204.79	234.536
2203.95	246.377
2203.11	219.63
2202.26	275.984
2201.42	210.668
2200.58	278.873
2199.74	216.542
2198.89	266.932
2198.05	246.136
2197.21	252.032
2196.36	251.997
2195.52	219.355
2194.68	278.601
2193.83	225.221
2192.99	228.152
2192.15	237.008
2191.3	219.202
2190.46	225.095
2189.61	278.368
2188.77	225.032
2187.92	254.606
2187.08	257.531
2186.23	248.616
2185.39	260.419
2184.55	210.081
2183.7	251.471
2182.86	275.1
2182.01	263.231
2181.16	251.365
2180.32	277.942
2179.47	203.993
2178.63	248.304
2177.78	230.536
2176.94	283.697
2176.09	224.562
2175.24	248.166
2174.4	251.085
2173.55	239.236
2172.7	256.921
2171.86	259.838
2171.01	256.849
2170.16	221.391
2169.32	247.923
2168.47	244.938
2167.62	230.15
2166.77	203.566
2165.93	235.986
2165.08	247.751
2164.23	232.971
2163.38	274.219
2162.54	253.543
2161.69	235.821
2160.84	241.683
2159.99	212.18
2159.14	226.883
2158.29	226.851
2157.45	241.548
2156.6	232.679
2155.75	217.922
2154.9	259.114
2154.05	262.022
2153.2	250.211
2152.35	223.686
2151.5	264.855
2150.65	250.106
2149.8	270.665
2148.95	235.328
2148.1	244.119
2147.25	258.789
2146.4	244.051
2145.55	258.716
2144.7	229.285
2143.85	243.948
2143	217.466
2142.15	240.942
2141.3	252.66
2140.45	237.937
2139.6	252.589
2138.74	223.187
2137.89	249.583
2137.04	258.355
2136.19	246.577
2135.34	217.193
2134.49	234.77
2133.63	237.671
2132.78	237.638
2131.93	240.539
2131.08	252.237
2130.22	255.134
2129.37	237.506
2128.52	263.858
2127.67	243.302
2126.81	260.854
2125.96	249.095
2125.11	251.99
2124.25	249.025
2123.4	246.061
2122.55	243.098
2121.69	219.636
2120.84	245.958
2119.99	242.996
2119.13	219.544
2118.28	207.806
2117.42	245.821
2116.57	237.008
2115.71	254.529
2114.86	236.942
2114	222.285
2113.15	219.33
2112.3	192.983
2111.44	213.421
2110.58	283.547
2109.73	245.512
2108.87	225.021
2108.02	201.614
2107.16	292.153
2106.31	207.4
2105.45	233.657
2104.59	216.103
2103.74	262.791
2102.88	251.076
2102.03	262.718
2101.17	242.25
2100.31	253.889
2099.46	262.608
2098.6	230.479
2097.74	239.198
2096.88	224.581
2096.03	204.136
2095.17	244.929
2094.31	224.487
2093.45	241.946
2092.6	238.997
2091.74	241.878
2090.88	236.017
2090.02	253.464
2089.16	227.212
2088.31	195.142
2087.45	244.621
2086.59	247.499
2085.73	276.577
2084.87	279.45
2084.01	244.484
2083.15	232.81
2082.29	256.055
2081.44	253.11
2080.58	253.074
2079.72	238.496
2078.86	270.452
2078	226.799
2077.14	250.025
2076.28	255.804
2075.42	244.143
2074.56	215.048
2073.7	264.414
2072.84	223.703
2071.97	249.816
2071.11	270.112
2070.25	238.13
2069.39	235.193
2068.53	243.869
2067.67	264.155
2066.81	290.239
2065.95	255.375
2065.09	281.454
2064.22	272.711
2063.36	243.665
2062.5	246.531
2061.64	231.997
2060.78	269.658
2059.91	249.327
2059.05	243.494
2058.19	304.325
2057.33	289.793
2056.46	202.827
2055.6	283.918
2054.74	292.568
2053.87	266.46
2053.01	254.839
2052.15	220.058
2051.28	225.817
2050.42	263.416
2049.56	237.331
2048.69	248.873
2047.83	277.773
2046.96	251.697
2046.1	271.91
2045.24	225.596
2044.37	254.483
2043.51	271.796
2042.64	274.649
2041.78	248.595
2040.91	248.56
2040.05	309.211
2039.18	242.711
2038.32	303.347
2037.45	259.975
2036.59	236.833
2035.72	262.79
2034.85	300.29
2033.99	274.265
2033.12	233.814
2032.26	251.098
2031.39	268.378
2030.52	259.684
2029.66	250.993
2028.79	253.842
2027.92	265.343
2027.06	276.841
2026.19	233.552
2025.32	256.583
2024.45	253.664
2023.59	242.1
2022.72	221.894
2021.85	256.439
2020.98	241.999
2020.12	270.77
2019.25	279.372
2018.38	264.935
2017.51	276.415
2016.64	270.618
2015.77	261.945
2014.91	259.03
2014.04	238.85
2013.17	270.467
2012.3	258.921
2011.43	287.65
2010.56	270.353
2009.69	261.688
2008.82	244.399
2007.95	224.241
2007.08	267.327
2006.21	244.297
2005.34	221.273
2004.47	238.482
2003.6	270.05
2002.73	281.502
2001.86	264.23
2000.99	275.68
2000.12	258.413
1999.25	258.377
1998.38	246.859
1997.51	198.034
1996.64	264.008
1995.77	269.709
1994.89	269.671
1994.02	269.634
1993.15	289.672
1992.28	258.087
1991.41	283.856
1990.53	232.214
1989.66	209.25
1988.79	235.014
1987.92	240.713
1987.05	280.792
1986.17	243.51
1985.3	240.612
1984.43	263.49
1983.55	257.726
1982.68	257.69
1981.81	243.339
1980.93	266.205
1980.06	248.995
1979.19	248.96
1978.31	254.648
1977.44	277.498
1976.57	286.041
1975.69	274.561
1974.82	300.258
1973.94	243.032
1973.07	268.727
1972.19	234.389
1971.32	254.362
1970.44	288.617
1969.57	240.005
1968.69	251.398
1967.82	299.922
1966.94	237.048
1966.07	237.014
1965.19	236.981
1964.32	216.964
1963.44	239.769
1962.56	291.107
1961.69	279.652
1960.81	262.494
1959.94	268.162
1959.06	305.206
1958.18	273.791
1957.31	288.01
1956.43	248.053
1955.55	265.123
1954.68	247.984
1953.8	290.699
1952.92	270.711
1952.04	236.483
1951.17	273.484
1950.29	284.839
1949.41	227.839
1948.53	247.74
1947.65	256.247
1946.78	273.292
1945.9	264.714
1945.02	276.061
1944.14	267.485
1943.26	261.757
1942.38	258.876
1941.5	258.84
1940.63	275.867
1939.75	241.705
1938.87	241.671
1937.99	241.637
1937.11	244.446
1936.23	238.728
1935.35	241.536
1934.47	252.866
1933.59	249.99
1932.71	255.636
1931.83	261.28
1930.95	249.885
1930.07	247.01
1929.19	266.847
1928.31	252.618
1927.43	235.554
1926.54	255.384
1925.66	255.349
1924.78	263.823
1923.9	243.931
1923.02	249.569
1922.14	272.219
1921.26	255.169
1920.37	260.803
1919.49	266.435
1918.61	266.398
1917.73	209.688
1916.84	232.324
1915.96	257.787
1915.08	220.929
1914.2	243.554
1913.31	246.352
1912.43	254.811
1911.55	266.098
1910.66	240.587
1909.78	232.063
1908.9	223.542
1908.01	260.29
1907.13	231.965
1906.25	240.418
1905.36	246.04
1904.48	234.695
1903.59	237.489
1902.71	245.936
1901.83	251.555
1900.94	240.215
1900.06	257.135
1899.17	271.226
1898.29	274.012
1897.4	248.554
1896.52	214.63
1895.63	265.426
1894.74	225.862
1893.86	254.06
1892.97	248.379
1892.09	231.411
1891.2	245.487
1890.32	290.593
1889.43	251.06
1888.54	248.204
1887.66	234.069
1886.77	228.396
1885.88	245.28
1885	242.427
1884.11	245.211
1883.22	259.267
1882.33	245.142
1881.45	250.742
1880.56	276.059
1879.67	247.855
1878.78	264.717
1877.9	222.444
1877.01	259.012
1876.12	247.716
1875.23	236.423
1874.34	222.319
1873.46	256.052
1872.57	256.016
1871.68	267.232
1870.79	227.819
1869.9	230.599
1869.01	269.931
1868.12	255.836
1867.23	241.745
1866.34	230.469
1865.45	244.487
1864.56	278.171
1863.67	261.275
1862.78	244.384
1861.89	241.541
1861	247.124
1860.11	269.551
1859.22	238.632
1858.33	221.756
1857.44	261.018
1856.55	260.981
1855.66	263.75
1854.77	241.269
1853.88	252.456
1852.99	215.959
1852.09	255.189
1851.2	249.545
1850.31	218.672
1849.42	246.672
1848.53	210.202
1847.63	215.777
1846.74	235.36
1845.85	224.121
1844.96	240.896
1844.06	246.463
1843.17	235.227
1842.28	235.194
1841.39	226.762
1840.49	221.132
1839.6	293.868
1838.71	263.045
1837.81	229.433
1836.92	218.21
1836.03	257.34
1835.13	215.352
1834.24	279.638
1833.34	234.863
1832.45	240.421
1831.55	237.592
1830.66	273.891
1829.77	254.291
1828.87	215.139
1827.98	231.871
1827.08	262.564
1826.19	262.527
1825.29	273.659
1824.4	228.948
1823.5	251.249
1822.6	270.752
1821.71	276.296
1820.81	262.305
1819.92	256.688
1819.02	256.651
1818.12	262.194
1817.23	225.901
1816.33	250.966
1815.43	253.719
1814.54	214.655
1813.64	242.498
1812.74	275.907
1811.85	261.935
1810.95	259.112
1810.05	250.718
1809.15	236.756
1808.26	242.293
1807.36	247.828
1806.46	256.145
1805.56	242.19
1804.66	244.939
1803.77	242.122
1802.87	233.74
1801.97	264.311
1801.07	280.965
1800.17	222.515
1799.27	228.046
1798.37	253.04
1797.47	255.784
1796.58	252.968
1795.68	241.815
1794.78	300.141
1793.88	275.091
1792.98	250.047
1792.08	266.679
1791.18	277.752
1790.28	241.61
1789.38	272.12
1788.48	274.858
1787.57	285.923
1786.67	274.78
1785.77	266.416
1784.87	260.829
1783.97	288.536
1783.07	249.659
1782.17	277.36
1781.27	255.135
1780.37	244.008
1779.46	288.332
1778.56	282.748
1777.66	235.59
1776.76	277.125
1775.86	296.482
1774.95	296.44
1774.05	274.238
1773.15	276.969
1772.25	246.467
1771.34	287.966
1770.44	265.777
1769.54	251.899
1768.63	249.096
1767.73	282.269
1766.83	290.53
1765.92	304.322
1765.02	265.552
1764.11	295.938
1763.21	306.958
1762.31	315.21
1761.4	265.402
1760.5	276.422
1759.59	281.91
1758.69	290.161
1757.78	290.12
1756.88	256.927
1755.97	259.653
1755.07	265.14
1754.16	303.763
1753.26	276.11
1752.35	270.549
1751.45	303.635
1750.54	295.312
1749.63	259.396
1748.73	259.36
1747.82	264.841
1746.92	289.628
1746.01	267.524
1745.1	289.547
1744.2	306.049
1743.29	259.14
1742.38	281.155
1741.48	289.383
1740.57	281.075
1739.66	281.035
1738.75	269.976
1737.85	250.657
1736.94	311.211
1736.03	269.862
1735.12	253.304
1734.21	247.762
1733.31	286.263
1732.4	327.504
1731.49	269.671
1730.58	277.887
1729.67	277.848
1728.76	269.557
1727.85	261.268
1726.94	285.979
1726.04	285.939
1725.13	283.15
1724.22	277.612
1723.31	321.545
1722.4	285.777
1721.49	285.737
1720.58	282.949
1719.67	269.176
1718.76	299.347
1717.85	269.1
1716.94	271.807
1716.02	260.788
1715.11	301.923
1714.2	266.203
1713.29	263.422
1712.38	290.82
1711.47	277.063
1710.56	266.053
1709.65	287.954
1708.73	304.366
1707.82	263.198
1706.91	298.797
1706	271.346
1705.09	260.346
1704.17	284.97
1703.26	246.574
1702.35	301.325
1701.44	268.415
1700.52	298.501
1699.61	273.816
1698.7	276.515
1697.78	325.749
1696.87	279.173
1695.96	279.134
1695.04	292.776
1694.13	287.262
1693.22	287.222
1692.3	270.771
1691.39	273.467
1690.47	251.554
1689.56	284.325
1688.64	284.285
1687.73	278.779
1686.81	300.601
1685.9	300.558
1684.98	292.32
1684.07	322.326
1683.15	289.506
1682.24	273.08
1681.32	283.963
1680.41	292.113
1679.49	360.313
1678.57	302.947
1677.66	281.074
1676.74	327.418
1675.83	275.538
1674.91	297.32
1673.99	330.006
1673.08	308.144
1672.16	305.374
1671.24	286.247
1670.32	267.126
1669.41	294.342
1668.49	337.901
1667.57	305.158
1666.65	329.632
1665.74	291.452
1664.82	329.539
1663.9	255.969
1662.98	288.605
1662.06	280.398
1661.15	283.08
1660.23	307.533
1659.31	285.721
1658.39	293.842
1657.47	258.436
1656.55	291.039
1655.63	304.596
1654.71	323.587
1653.79	328.979
1652.87	304.467
1651.95	361.503
1651.03	339.71
1650.11	331.51
1649.19	323.312
1648.27	350.432
1647.35	328.653
1646.43	347.617
1645.51	325.844
1644.59	314.938
1643.67	339.325
1642.75	336.563
1641.83	336.515
1640.91	322.9
1639.99	358.124
1639.06	341.797
1638.14	387.858
1637.22	404.074
1636.3	385.036
1635.38	395.826
1634.45	422.878
1633.53	414.687
1632.61	474.247
1631.69	485.019
1630.76	514.751
1629.84	490.299
1628.92	509.188
1627.99	557.861
1627.07	611.936
1626.15	638.922
1625.22	687.556
1624.3	692.871
1623.38	733.365
1622.45	714.321
1621.53	776.443
1620.6	646.493
1619.68	678.857
1618.76	719.324
1617.83	735.445
1616.91	732.637
1615.98	675.769
1615.06	764.861
1614.13	772.86
1613.21	810.577
1612.28	821.268
1611.35	786.037
1610.43	829.137
1609.5	818.218
1608.58	842.402
1607.65	934.07
1606.73	947.433
1605.8	995.878
1604.87	1052.4
1603.95	1117.01
1603.02	1127.64
1602.09	1240.77
1601.17	1324.2
1600.24	1407.6
1599.31	1534.12
1598.38	1585.13
1597.46	1725.06
1596.53	1891.91
1595.6	2010.21
1594.67	2314.37
1593.74	2472.98
1592.82	2814.71
1591.89	3008.21
1590.96	3430.54
1590.03	3995.45
1589.1	4350.22
1588.17	4844.86
1587.24	5533.12
1586.32	6083.95
1585.39	6696.5
1584.46	7271.22
1583.53	7813.51
1582.6	8143.18
1581.67	8174.29
1580.74	8097.85
1579.81	7757.99
1578.88	7098.39
1577.95	6581.4
1577.02	5873.79
1576.09	5453.84
1575.16	4776.13
1574.23	4267.83
1573.29	3816.06
1572.36	3299.98
1571.43	3103.53
1570.5	2724.6
1569.57	2536.33
1568.64	2364.22
1567.71	1961.41
1566.77	1961.13
1565.84	1719.43
1564.91	1657.5
1563.98	1464.19
1563.05	1407.67
1562.11	1238.58
1561.18	1144.58
1560.25	1139.06
1559.31	1093.34
1558.38	994.048
1557.45	948.364
1556.52	881.264
1555.58	849
1554.65	851.557
1553.71	789.854
1552.78	800.45
1551.85	760.185
1550.91	762.754
1549.98	709.126
1549.04	639.461
1548.11	671.472
1547.17	647.303
1546.24	601.746
1545.31	601.66
1544.37	604.248
1543.43	574.756
1542.5	515.871
1541.56	523.815
1540.63	523.74
1539.69	510.307
1538.76	486.192
1537.82	531.53
1536.88	462.018
1535.95	464.623
1535.01	496.595
1534.08	451.143
1533.14	480.439
1532.2	501.72
1531.27	442.945
1530.33	421.539
1529.39	402.806
1528.45	448.091
1527.52	437.36
1526.58	373.303
1525.64	367.917
1524.7	399.853
1523.77	359.817
1522.83	373.09
1521.89	349.056
1520.95	335.686
1520.01	367.603
1519.07	348.907
1518.13	402.118
1517.2	380.76
1516.26	335.447
1515.32	340.723
1514.38	338.013
1513.44	348.609
1512.5	377.828
1511.56	380.435
1510.62	321.86
1509.68	398.944
1508.74	313.791
1507.8	364.265
1506.86	324.335
1505.92	364.161
1504.98	340.189
1504.04	353.428
1503.1	348.064
1502.16	355.984
1501.21	332.027
1500.27	345.259
1499.33	305.378
1498.39	307.989
1497.45	315.91
1496.51	353.025
1495.56	299.896
1494.62	363.539
1493.68	355.528
1492.74	336.907
1491.79	360.731
1490.85	334.159
1489.91	355.325
1488.97	342.018
1488.02	315.46
1487.08	336.619
1486.14	328.621
1485.19	310.026
1484.25	299.384
1483.31	333.778
1482.36	315.19
1481.42	256.883
1480.47	299.213
1479.53	309.761
1478.59	328.246
1477.64	293.792
1476.7	283.164
1475.75	283.124
1474.81	291.02
1473.86	304.205
1472.92	280.358
1471.97	322.63
1471.02	298.787
1470.08	282.882
1469.13	259.051
1468.19	266.943
1467.24	243.121
1466.3	303.858
1465.35	269.471
1464.4	272.074
1463.46	298.446
1462.51	298.404
1461.56	306.282
1460.62	319.438
1459.67	303.555
1458.72	290.316
1457.77	282.358
1456.83	266.487
1455.88	335.039
1454.93	276.961
1453.98	329.669
1453.03	316.437
1452.09	313.755
1451.14	313.711
1450.19	279.4
1449.24	255.641
1448.29	287.225
1447.34	271.376
1446.39	297.681
1445.45	273.933
1444.5	287.061
1443.55	289.654
1442.6	289.612
1441.65	276.409
1440.7	289.53
1439.75	284.225
1438.8	334.18
1437.85	292.037
1436.9	326.193
1435.95	252.5
1435	297.171
1434.05	315.535
1433.09	283.941
1432.14	262.871
1431.19	275.975
1430.24	299.587
1429.29	268.013
1428.34	267.975
1427.39	278.444
1426.43	317.801
1425.48	291.495
1424.53	291.454
1423.58	296.663
1422.63	304.495
1421.67	286.079
1420.72	270.293
1419.77	278.126
1418.81	314.815
1417.86	278.047
1416.91	259.648
1415.96	267.478
1415	304.147
1414.05	343.428
1413.09	285.712
1412.14	311.879
1411.19	283.01
1410.23	296.07
1409.28	306.506
1408.32	293.366
1407.37	301.181
1406.41	314.231
1405.46	306.331
1404.5	314.141
1403.55	319.331
1402.59	324.52
1401.64	295.689
1400.68	342.741
1399.73	321.765
1398.77	313.872
1397.82	300.751
1396.86	326.856
1395.9	295.436
1394.95	318.921
1393.99	347.626
1393.03	326.669
1392.08	371.043
1391.12	352.702
1390.16	318.693
1389.21	373.496
1388.25	362.997
1387.29	344.667
1386.33	336.786
1385.38	370.672
1384.42	357.569
1383.46	375.786
1382.5	409.652
1381.54	435.682
1380.59	438.228
1379.63	432.949
1378.67	451.142
1377.71	451.077
1376.75	503.153
1375.79	523.934
1374.83	625.503
1373.87	604.567
1372.91	601.875
1371.95	606.999
1370.99	677.241
1370.03	658.913
1369.07	729.128
1368.11	801.926
1367.15	744.539
1366.19	832.931
1365.23	801.582
1364.27	887.339
1363.31	913.23
1362.35	931.309
1361.39	946.782
1360.43	977.854
1359.47	988.116
1358.5	1032.17
1357.54	1026.83
1356.58	1047.47
1355.62	1125.29
1354.66	1104.34
1353.69	1143.15
1352.73	1104.02
1351.77	1093.48
1350.81	1121.89
1349.84	1108.74
1348.88	1194.26
1347.92	1066.89
1346.95	1048.57
1345.99	1100.32
1345.03	1043.08
1344.06	993.638
1343.1	983.12
1342.14	1001.13
1341.17	985.432
1340.21	920.469
1339.24	948.854
1338.28	829.481
1337.31	881.197
1336.35	826.652
1335.39	790.259
1334.42	730.561
1333.45	761.54
1332.49	696.683
1331.52	670.688
1330.56	717.197
1329.59	665.318
1328.63	639.339
1327.66	603.015
1326.7	597.753
1325.73	589.905
1324.76	530.321
1323.8	558.697
1322.83	509.48
1321.86	517.164
1320.9	473.137
1319.93	462.729
1318.96	516.942
1317.99	472.934
1317.03	441.859
1316.06	454.713
1315.09	467.564
1314.12	413.257
1313.15	433.858
1312.19	410.557
1311.22	425.988
1310.25	407.858
1309.28	379.408
1308.31	399.999
1307.34	371.558
1306.37	337.967
1305.41	340.498
1304.44	343.028
1303.47	322.348
1302.5	327.459
1301.53	368.661
1300.56	340.254
1299.59	319.586
1298.62	329.848
1297.65	327.224
1296.68	306.568
1295.71	321.979
1294.74	316.782
1293.76	298.711
1292.79	308.967
1291.82	301.199
1290.85	293.434
1289.88	293.392
1288.91	298.496
1287.94	277.871
1286.96	277.831
1285.99	285.507
1285.02	295.753
1284.05	282.854
1283.08	308.524
1282.1	293.055
1281.13	334.138
1280.16	262.132
1279.19	269.803
1278.21	269.765
1277.24	267.157
1276.27	274.824
1275.29	243.968
1274.32	272.177
1273.34	267.004
1272.37	284.934
1271.4	246.394
1270.42	264.323
1269.45	259.153
1268.47	277.074
1267.5	279.599
1266.52	248.782
1265.55	266.697
1264.57	230.763
1263.6	243.548
1262.62	243.513
1261.65	238.352
1260.67	279.319
1259.7	279.278
1258.72	271.553
1257.75	233.092
1256.77	271.475
1255.79	253.511
1254.82	207.388
1253.84	289.278
1252.86	245.723
1251.89	243.128
1250.91	263.564
1249.93	240.5
1248.95	243.024
1247.98	237.873
1247	268.528
1246.02	237.805
1245.04	240.327
1244.07	242.849
1243.09	235.146
1242.11	235.113
1241.13	247.855
1240.15	255.484
1239.17	229.902
1238.2	263.073
1237.22	257.927
1236.24	219.59
1235.26	237.429
1234.28	242.5
1233.3	260.331
1232.32	257.742
1231.34	239.844
1230.36	221.952
1229.38	232.123
1228.4	193.833
1227.42	211.656
1226.44	224.374
1225.46	226.891
1224.48	219.211
1223.5	219.18
1222.52	226.793
1221.53	244.595
1220.55	226.728
1219.57	216.506
1218.59	208.835
1217.61	254.64
1216.63	221.505
1215.64	211.291
1214.66	203.624
1213.68	239.224
1212.7	213.744
1211.71	206.081
1210.73	241.665
1209.75	188.217
1208.77	249.225
1207.78	221.219
1206.8	254.238
1205.82	251.659
1204.83	221.123
1203.85	233.798
1202.86	246.469
1201.88	223.568
1200.9	226.076
1199.91	213.345
1198.93	241.248
1197.94	218.361
1196.96	213.252
1195.97	200.53
1194.99	200.501
1194	203.01
1193.02	225.816
1192.03	210.562
1191.05	220.678
1190.06	228.255
1189.07	228.222
1188.09	212.976
1187.1	210.411
1186.12	233.193
1185.13	225.556
1184.14	235.66
1183.16	215.357
1182.17	210.259
1181.18	220.36
1180.2	243.121
1179.21	222.829
1178.22	192.416
1177.23	237.953
1176.25	222.733
1175.26	227.762
1174.27	247.972
1173.28	225.167
1172.29	212.486
1171.3	232.689
1170.32	232.656
1169.33	212.394
1168.34	247.758
1167.35	230.028
1166.36	219.885
1165.37	212.272
1164.38	234.982
1163.39	224.842
1162.4	166.713
1161.41	244.982
1160.42	204.543
1159.43	196.939
1158.44	232.254
1157.45	237.269
1156.46	232.187
1155.47	234.677
1154.48	206.89
1153.49	221.996
1152.5	214.397
1151.51	196.712
1150.51	226.943
1149.52	216.825
1148.53	216.794
1147.54	221.804
1146.55	201.611
1145.56	262.056
1144.56	206.592
1143.57	204.043
1142.58	226.681
1141.59	234.204
1140.59	208.99
1139.6	211.478
1138.61	211.447
1137.61	221.484
1136.62	231.518
1135.63	186.194
1134.63	216.357
1133.64	243.995
1132.64	211.264
1131.65	228.837
1130.66	221.261
1129.66	238.827
1128.67	236.279
1127.67	218.652
1126.68	226.159
1125.68	233.664
1124.69	231.118
1123.69	226.061
1122.7	215.983
1121.7	233.529
1120.7	251.07
1119.71	195.807
1118.71	220.878
1117.72	213.317
1116.72	210.777
1115.72	245.871
1114.73	230.785
1113.73	203.162
1112.73	213.163
1111.74	238.207
1110.74	215.609
1109.74	268.219
1108.74	240.61
1107.75	260.623
1106.75	240.541
1105.75	245.517
1104.75	205.403
1103.76	227.914
1102.76	225.377
1101.76	222.84
1100.76	222.808
1099.76	197.745
1098.76	235.258
1097.76	205.195
1096.76	222.68
1095.76	247.664
1094.77	215.111
1093.77	227.585
1092.77	252.558
1091.77	222.519
1090.77	227.486
1089.77	244.95
1088.77	222.422
1087.76	197.403
1086.76	219.86
1085.76	204.84
1084.76	239.778
1083.76	214.77
1082.76	219.733
1081.76	194.735
1080.76	217.173
1079.76	194.679
1078.75	222.101
1077.75	229.555
1076.75	229.521
1075.75	251.938
1074.75	204.514
1073.74	214.46
1072.74	211.935
1071.74	181.989
1070.73	204.396
1069.73	224.305
1068.73	214.305
1067.72	231.714
1066.72	209.26
1065.72	196.776
1064.71	196.747
1063.71	204.189
1062.71	216.609
1061.7	211.598
1060.7	238.947
1059.69	199.094
1058.69	223.948
1057.68	236.356
1056.68	203.983
1055.67	213.902
1054.67	241.227
1053.66	223.786
1052.66	208.837
1051.65	228.693
1050.64	203.806
1049.64	176.44
1048.63	213.686
1047.63	211.17
1046.62	221.076
1045.61	230.978
1044.61	230.945
1043.6	225.946
1042.59	240.808
1041.59	225.88
1040.58	213.438
1039.57	238.222
1038.56	223.301
1037.56	223.269
1036.55	310.051
1035.54	267.845
1034.53	265.326
1033.52	272.726
1032.51	260.292
1031.51	282.562
1030.5	294.912
1029.49	319.648
1028.48	287.394
1027.47	319.556
1026.46	326.94
1025.45	334.322
1024.44	314.465
1023.43	331.749
1022.42	346.553
1021.41	316.803
1020.4	358.826
1019.39	346.403
1018.38	390.884
1017.37	328.987
1016.36	380.878
1015.35	368.458
1014.34	348.625
1013.33	425.211
1012.31	415.262
1011.3	388.016
1010.29	368.191
1009.28	422.494
1008.27	395.259
1007.25	400.141
1006.24	414.901
1005.23	409.903
1004.22	432.064
1003.2	436.938
1002.19	468.962
1001.18	508.38
1000.17	520.643
999.152	493.429
998.139	547.627
997.125	520.417
996.111	540.07
995.097	589.306
994.083	628.667
993.069	635.971
992.055	685.171
991.04	744.215
990.026	783.53
989.011	845.006
987.996	911.39
986.981	903.869
985.966	916.051
984.95	952.85
983.935	989.639
982.919	999.341
981.903	1045.96
980.887	1008.89
979.871	1038.27
978.855	1006.14
977.838	956.802
976.822	1064.87
975.805	1059.8
974.788	988.348
973.771	1034.91
972.754	1022.47
971.737	1000.2
970.719	990.231
969.702	1044.14
968.684	1019.42
967.666	1016.82
966.648	972.467
965.63	974.781
964.612	1023.74
963.593	1008.86
962.575	1035.71
961.556	1055.2
960.537	1005.97
959.518	996.011
958.499	976.244
957.479	944.22
956.46	993.126
955.44	985.626
954.42	1007.55
953.4	977.987
952.38	943.534
951.36	970.352
950.34	1009.41
949.319	967.62
948.298	967.48
947.278	994.278
946.257	962.302
945.235	1072.33
944.214	1018.32
943.193	979.015
942.171	1103.68
941.149	1000.75
940.128	1049.54
939.105	1020.03
938.083	1024.77
937.061	887.682
936.039	831.317
935.016	723.63
933.993	774.856
932.97	679.428
931.947	603.577
930.924	561.953
929.901	608.287
928.877	508.054
927.853	454.251
926.83	407.79
925.806	383.316
924.781	390.583
923.757	344.152
922.733	351.423
921.708	346.492
920.684	361.08
919.659	307.361
918.634	326.828
917.609	356.045
916.583	312.104
915.558	268.175
914.532	316.888
913.506	292.469
912.481	309.485
911.455	324.059
910.428	255.799
909.402	323.965
908.375	321.483
907.349	262.993
906.322	309.215
905.295	311.605
904.268	267.746
903.241	245.804
902.213	304.169
901.186	265.197
900.158	294.35
899.13	323.494
898.102	284.536
897.074	269.905
896.046	308.766
895.017	289.274
893.989	284.371
892.96	262.458
891.931	330.455
890.902	279.388
889.873	289.064
888.844	279.306
887.814	303.55
886.785	286.509
885.755	303.461
884.725	293.708
883.695	288.811
882.665	279.063
881.634	283.875
880.604	293.537
879.573	271.664
878.542	288.601
877.511	286.134
876.48	276.395
875.449	269.082
874.417	271.466
873.386	288.391
872.354	319.849
871.322	281.039
870.29	276.153
869.258	273.691
868.226	283.338
867.193	314.774
866.16	295.36
865.128	300.159
864.095	273.492
863.062	263.772
862.028	258.895
860.995	312.08
859.961	283.008
858.928	251.526
857.894	270.835
856.86	287.72
855.826	304.6
854.791	297.304
853.757	261.01
852.722	263.388
851.688	292.342
850.653	251.233
849.618	285.011
848.583	282.555
847.547	270.44
846.512	255.915
845.476	277.603
844.44	304.112
843.404	270.283
842.368	248.527
841.332	282.267
840.295	282.225
839.259	299.067
838.222	284.555
837.185	289.335
836.148	286.882
835.111	298.893
834.074	327.77
833.036	320.493
831.999	265.031
830.961	298.718
829.923	313.127
828.885	284.181
827.847	288.956
826.808	310.582
825.77	276.835
824.731	303.271
823.692	269.535
822.653	327.245
821.614	295.921
820.575	305.5
819.536	307.86
818.496	322.244
817.456	317.388
816.416	324.554
815.376	262.009
814.336	300.425
813.296	324.412
812.255	312.351
811.215	283.478
810.174	273.828
809.133	324.223
808.092	307.366
807.051	304.921
806.009	268.867
804.968	280.829
803.926	297.587
802.884	239.955
801.842	275.908
800.8	273.469
799.758	290.218
798.715	270.991
797.672	263.758
796.63	273.309
795.587	297.24
794.544	268.436
793.5	299.55
792.457	313.882
791.414	244.361
790.37	246.721
789.326	249.08
788.282	265.806
787.238	244.218
786.194	272.91
785.149	265.69
784.104	260.864
783.06	265.612
782.015	256.003
780.97	263.142
779.925	294.198
778.879	251.108
777.834	308.459
776.788	265.379
775.742	258.169
774.696	267.692
773.65	253.314
772.604	272.392
771.557	269.963
770.511	248.426
769.464	246.001
768.417	260.293
767.37	274.581
766.323	284.09
765.275	267.34
764.228	248.208
763.18	262.489
762.132	248.135
761.085	236.171
760.036	248.063
758.988	259.951
757.94	243.221
756.891	226.496
755.842	231.231
754.793	207.362
753.744	252.611
752.695	216.833
751.646	278.744
750.596	233.444
749.547	231.028
748.497	240.52
747.447	223.817
746.397	219.023
745.347	245.175
744.296	249.899
743.246	223.687
742.195	221.275
741.144	273.579
740.093	233.103
739.042	247.338
737.99	242.546
736.939	228.245
735.887	206.817
734.835	240.063
733.783	237.651
732.731	218.607
731.679	228.078
730.627	218.543
729.574	220.886
728.521	275.474
727.468	227.945
726.415	232.66
725.362	237.373
724.309	220.725
723.255	246.796
722.202	239.642
721.148	256.213
720.094	208.735
719.04	253.766
717.986	234.759
716.931	244.208
715.877	274.99
714.822	222.804
713.767	218.032
712.712	263.022
711.657	246.399
710.601	243.994
709.546	236.852
708.49	232.081
707.434	217.84
706.378	248.586
705.322	222.511
704.266	246.146
703.209	241.377
702.153	265.003
701.096	229.478
700.039	241.271
698.982	281.442
697.925	290.859
696.868	234.072
695.81	222.218
694.752	274.186
693.695	241.059
692.637	252.839
691.578	255.164
690.52	259.851
689.462	273.985
688.403	290.476
687.344	273.904
686.285	264.421
685.226	295.069
684.167	252.542
683.108	257.225
682.048	283.142
680.988	276.023
679.929	271.265
678.869	283.017
677.808	278.26
676.748	311.228
675.688	282.893
674.627	313.494
673.566	325.231
672.505	315.758
671.444	308.644
670.383	313.31
669.322	303.842
668.26	282.603
667.198	306.108
666.136	331.961
665.074	268.354
664.012	289.498
662.95	272.982
661.887	289.413
660.825	268.197
659.762	312.85
658.699	296.341
657.636	312.759
656.573	268.039
655.509	307.965
654.446	312.621
653.382	293.773
652.318	267.882
651.254	274.891
650.19	281.898
649.125	274.811
648.061	272.422
646.996	272.382
645.931	293.472
644.866	272.302
643.801	262.873
642.736	272.222
641.67	297.992
640.605	260.412
639.539	295.559
638.473	288.48
637.407	274.367
636.341	248.535
635.274	255.532
634.208	274.246
633.141	269.519
632.074	276.509
631.007	283.497
629.94	285.798
628.872	295.125
627.805	266.979
626.737	285.672
625.67	330.114
624.602	294.952
623.533	315.973
622.465	294.865
621.397	306.521
620.328	297.118
619.259	315.788
618.19	325.097
617.121	336.741
616.052	322.663
614.983	299.238
613.913	317.893
612.844	299.15
611.774	275.738
610.704	282.707
609.633	294.346
608.563	296.638
607.493	277.911
606.422	289.546
605.351	266.156
604.28	266.117
603.209	249.74
602.138	268.372
601.066	268.333
599.995	256.628
598.923	242.595
597.851	256.553
596.779	209.876
595.707	249.483
594.635	240.121
593.562	261.064
592.489	254.034
591.416	219.043
590.343	265.609
589.27	253.922
588.197	258.543
587.123	284.122
586.05	260.795
584.976	223.506
583.902	232.784
582.828	246.715
581.754	251.333
580.679	267.584
579.605	265.218
578.53	251.222
577.455	251.185
576.38	260.45
575.305	239.486
574.229	260.373
573.154	262.659
572.078	227.76
571.002	271.877
569.926	262.543
568.85	292.704
567.774	267.112
566.697	239.204
565.621	276.321
564.544	280.924
563.467	236.777
562.39	285.483
561.312	278.479
560.235	301.641
559.157	250.557
558.08	296.913
557.002	301.508
555.924	329.291
554.845	301.419
553.767	301.375
552.689	324.509
551.61	322.144
550.531	317.462
549.452	326.683
548.373	347.484
547.293	354.381
546.214	345.066
545.134	384.379
544.054	363.485
542.974	407.414
541.894	407.354
540.814	409.608
539.733	428.058
538.653	462.698
537.572	483.448
536.491	562.012
535.41	550.367
534.329	605.777
533.247	672.729
532.166	785.89
531.084	829.686
530.002	970.52
528.92	1125.17
527.838	1337.54
526.756	1676.87
525.673	2288.61
524.59	3281.17
523.507	4949.89
522.424	9032.68
521.341	16735.6
520.258	24923.1
519.174	25558.6
518.091	18036.2
517.007	10479.2
515.923	5924.97
514.839	3687.29
513.755	2531.61
512.67	1945.69
511.586	1489.01
510.501	1209.93
509.416	986.238
508.331	893.934
507.245	783.229
506.16	677.162
505.075	635.61
503.989	580.254
502.903	575.564
501.817	471.892
500.731	441.902
499.644	485.561
498.558	462.48
497.471	404.898
496.384	414.039
495.297	423.177
494.21	393.221
493.123	363.273
492.035	402.3
490.947	374.658
489.86	381.498
488.772	312.506
487.684	353.815
486.595	344.574
485.507	326.149
484.418	326.101
483.329	344.421
482.24	298.455
481.151	335.138
480.062	307.547
478.973	335.039
477.883	302.867
476.793	307.411
475.703	307.365
474.613	302.733
473.523	295.809
472.433	261.374
471.342	293.429
470.251	288.802
469.161	309.385
468.07	263.511
466.978	286.382
465.887	313.829
464.795	290.879
463.704	267.935
462.612	286.213
461.52	256.409
460.428	288.418
459.335	279.22
458.243	242.565
457.15	256.258
456.057	235.631
454.965	265.331
453.871	306.458
452.778	294.979
451.685	276.645
450.591	285.748
449.497	326.847
448.403	324.514
447.309	310.756
446.215	335.841
445.12	312.948
444.026	342.593
442.931	328.841
441.836	337.926
440.741	312.763
439.646	321.847
438.55	356.034
437.455	399.338
436.359	401.56
435.263	417.47
434.167	390.037
433.071	401.382
431.975	380.8
430.878	385.304
429.781	417.161
428.685	369.235
427.588	373.738
426.49	401.026
425.393	378.184
424.295	334.848
423.198	355.297
422.1	378.016
421.002	377.96
419.904	375.628
418.805	357.363
417.707	391.448
416.608	398.216
415.51	359.479
414.411	348.052
413.311	361.647
412.212	382.061
411.113	404.743
410.013	413.777
408.913	415.989
407.813	363.652
406.713	352.236
405.613	354.456
404.512	404.383
403.412	356.622
402.311	408.806
401.21	429.183
400.109	397.332
399.008	385.923
397.906	354.088
396.805	344.958
395.703	422.057
394.601	381.157
393.499	401.516
392.397	374.239
391.294	403.665
390.192	430.814
389.089	392.21
387.986	408.019
386.883	423.824
385.78	348.979
384.677	337.599
383.573	400.981
382.469	373.74
381.366	409.921
380.261	346.456
379.157	369.046
378.053	400.684
376.948	380.254
375.844	382.46
374.739	395.98
373.634	425.333
372.529	429.794
371.423	359.616
370.318	420.62
369.212	431.863
368.106	400.149
367	427.215
365.894	402.29
364.788	409.01
363.681	411.209
362.575	424.702
361.468	393.017
360.361	420.059
359.254	442.577
358.146	460.573
357.039	406.328
355.931	408.525
354.823	433.288
353.715	419.685
352.607	428.647
351.499	448.885
350.391	408.222
349.282	419.436
348.173	437.411
347.064	441.855
345.955	435.028
344.846	450.739
343.736	425.885
342.627	428.075
341.517	407.737
340.407	452.724
339.297	448.152
338.187	439.079
337.076	393.987
335.965	481.718
334.855	459.14
333.744	456.821
332.633	418.503
331.521	456.685
330.41	499.355
329.298	449.803
328.187	454.233
327.075	490.139
325.963	487.818
324.85	445.04
323.738	494.415
322.625	462.884
321.513	447.088
320.4	496.441
319.287	482.892
318.173	485.065
317.06	511.937
315.946	511.861
314.833	511.785
313.719	531.908
312.605	554.269
311.49	540.725
310.376	524.941
309.261	538.321
308.147	553.94
307.032	598.704
305.917	585.163
304.801	585.076
303.686	638.781
302.57	596.107
301.455	620.666
300.339	611.612
299.223	618.241
