3199.11	258.79
3198.41	237.519
3197.7	209.13
3197	212.646
3196.29	251.596
3195.59	240.933
3194.88	223.187
3194.17	265.662
3193.47	269.167
3192.76	269.131
3192.06	237.228
3191.35	247.816
3190.64	244.242
3189.94	233.591
3189.23	297.257
3188.52	290.14
3187.82	311.327
3187.11	282.986
3186.4	275.874
3185.7	222.791
3184.99	219.224
3184.28	272.225
3183.58	282.793
3182.87	261.548
3182.16	265.046
3181.45	261.476
3180.75	275.573
3180.04	219.015
3179.33	243.709
3178.62	271.928
3177.91	229.518
3177.21	211.834
3176.5	243.576
3175.79	282.369
3175.08	264.684
3174.37	264.648
3173.66	271.668
3172.96	236.354
3172.25	264.54
3171.54	225.71
3170.83	299.73
3170.12	282.06
3169.41	292.597
3168.7	243.21
3167.99	274.896
3167.28	281.906
3166.57	246.634
3165.86	257.169
3165.15	292.358
3164.44	288.796
3163.73	278.192
3163.02	239.424
3162.31	288.678
3161.6	242.878
3160.89	288.599
3160.18	281.521
3159.47	277.964
3158.76	263.854
3158.05	298.994
3157.34	228.611
3156.63	260.229
3155.92	284.807
3155.21	256.643
3154.5	274.183
3153.78	267.117
3153.07	298.708
3152.36	270.557
3151.65	210.795
3150.94	252.92
3150.23	263.422
3149.51	284.457
3148.8	277.395
3148.09	273.847
3147.38	287.851
3146.67	270.262
3145.95	280.753
3145.24	273.697
3144.53	238.575
3143.82	263.098
3143.1	280.6
3142.39	287.575
3141.68	277.017
3140.96	269.967
3140.25	262.919
3139.54	227.832
3138.82	287.379
3138.11	259.307
3137.4	238.249
3136.68	234.714
3135.97	255.698
3135.26	255.663
3134.54	294.147
3133.83	273.099
3133.11	283.564
3132.4	252.023
3131.69	220.49
3130.97	255.453
3130.26	290.407
3129.54	269.377
3128.83	304.319
3128.11	230.832
3127.4	258.776
3126.68	220.279
3125.97	262.201
3125.25	269.156
3124.54	269.119
3123.82	255.104
3123.11	310.975
3122.39	296.958
3121.68	293.424
3120.96	307.355
3120.24	226.993
3119.53	272.354
3118.81	293.264
3118.1	272.279
3117.38	286.203
3116.66	268.715
3115.95	275.657
3115.23	293.064
3114.51	265.117
3113.8	254.617
3113.08	285.969
3112.36	230.138
3111.65	257.999
3110.93	282.365
3110.21	261.414
3109.49	275.318
3108.78	299.673
3108.06	285.695
3107.34	268.238
3106.62	309.999
3105.91	250.752
3105.19	302.95
3104.47	288.982
3103.75	302.867
3103.03	261.057
3102.31	247.1
3101.6	288.824
3100.88	320.098
3100.16	285.266
3099.44	285.227
3098.72	306.055
3098	299.059
3097.28	292.064
3096.56	246.83
3095.85	305.888
3095.13	274.567
3094.41	253.679
3093.69	274.491
3092.97	236.239
3092.25	232.733
3091.53	267.433
3090.81	281.287
3090.09	270.832
3089.37	322.871
3088.65	288.114
3087.93	249.896
3087.21	284.565
3086.49	277.586
3085.77	277.548
3085.05	312.199
3084.32	298.283
3083.6	239.287
3082.88	291.266
3082.16	280.826
3081.44	270.388
3080.72	298.079
3080	270.314
3079.28	304.928
3078.55	287.563
3077.83	280.595
3077.11	280.557
3076.39	273.592
3075.67	266.629
3074.95	263.131
3074.22	273.48
3073.5	259.597
3072.78	325.317
3072.06	242.225
3071.33	228.352
3070.61	325.184
3069.89	294.009
3069.16	276.677
3068.44	304.303
3067.72	290.431
3067	259.278
3066.27	297.265
3065.55	290.312
3064.83	304.095
3064.1	279.867
3063.38	297.102
3062.65	297.062
3061.93	259.03
3061.21	328.06
3060.48	283.129
3059.76	279.637
3059.03	279.599
3058.31	286.464
3057.59	300.228
3056.86	279.485
3056.14	275.996
3055.41	248.363
3054.69	310.411
3053.96	282.78
3053.24	286.19
3052.51	348.207
3051.79	261.981
3051.06	251.606
3050.34	275.694
3049.61	296.331
3048.88	296.29
3048.16	261.802
3047.43	299.654
3046.71	258.287
3045.98	292.685
3045.25	302.974
3044.53	306.375
3043.8	265.029
3043.08	285.642
3042.35	302.808
3041.62	306.207
3040.9	285.525
3040.17	306.123
3039.44	302.642
3038.72	275.092
3037.99	244.11
3037.26	264.703
3036.53	299.039
3035.81	278.378
3035.08	281.776
3034.35	288.609
3033.62	274.828
3032.9	302.27
3032.17	278.187
3031.44	312.489
3030.71	284.978
3029.98	315.836
3029.25	326.091
3028.53	322.614
3027.8	264.233
3027.07	319.095
3026.34	271.022
3025.61	260.694
3024.88	260.658
3024.15	336.066
3023.42	291.446
3022.7	270.836
3021.97	253.66
3021.24	315.318
3020.51	270.725
3019.78	280.967
3019.05	298.059
3018.32	328.847
3017.59	301.402
3016.86	304.786
3016.13	273.927
3015.4	270.466
3014.67	287.545
3013.94	321.732
3013.21	266.933
3012.48	325.066
3011.74	348.97
3011.01	290.769
3010.28	294.149
3009.55	273.59
3008.82	256.455
3008.09	266.677
3007.36	259.804
3006.63	328.128
3005.9	304.16
3005.16	314.37
3004.43	310.91
3003.7	280.123
3002.97	293.747
3002.24	303.952
3001.5	310.74
3000.77	338.012
3000.04	262.862
2999.31	307.199
2998.57	283.267
2997.84	262.754
2997.11	279.778
2996.38	283.151
2995.64	286.523
2994.91	276.252
2994.18	283.034
2993.44	286.405
2992.71	323.866
2991.98	262.466
2991.24	282.879
2990.51	320.326
2989.78	303.246
2989.04	282.763
2988.31	292.944
2987.57	292.903
2986.84	275.836
2986.11	303.038
2985.37	302.996
2984.64	333.591
2983.9	326.738
2983.17	326.693
2982.43	285.818
2981.7	292.583
2980.96	278.936
2980.23	292.503
2979.49	312.867
2978.76	299.223
2978.02	312.781
2977.29	285.544
2976.55	292.302
2975.82	258.278
2975.08	329.6
2974.35	265.003
2973.61	298.936
2972.87	298.895
2972.14	329.419
2971.4	298.813
2970.66	302.168
2969.93	322.494
2969.19	288.508
2968.45	332.587
2967.72	271.463
2966.98	315.532
2966.24	305.312
2965.51	318.837
2964.77	342.534
2964.03	339.096
2963.3	305.145
2962.56	328.833
2961.82	298.282
2961.08	277.906
2960.34	321.921
2959.61	328.653
2958.87	291.343
2958.13	294.69
2957.39	338.678
2956.65	348.791
2955.92	328.428
2955.18	311.456
2954.44	294.488
2953.7	314.755
2952.96	304.56
2952.22	311.285
2951.48	290.944
2950.74	355.174
2950.01	287.482
2949.27	341.55
2948.53	284.022
2947.79	297.506
2947.05	338.029
2946.31	331.223
2945.57	307.522
2944.83	304.101
2944.09	324.33
2943.35	310.774
2942.61	283.711
2941.87	273.541
2941.13	266.75
2940.39	320.732
2939.65	334.19
2938.91	307.143
2938.17	283.478
2937.42	286.813
2936.68	310.391
2935.94	323.841
2935.2	323.797
2934.46	279.911
2933.72	330.452
2932.98	293.32
2932.24	289.909
2931.49	330.316
2930.75	303.31
2930.01	326.856
2929.27	316.704
2928.53	320.029
2927.78	319.985
2927.04	330.045
2926.3	316.53
2925.56	303.019
2924.81	313.077
2924.07	292.838
2923.33	299.529
2922.58	336.504
2921.84	370.103
2921.1	272.493
2920.36	353.183
2919.61	353.135
2918.87	282.469
2918.13	295.88
2917.38	342.904
2916.64	302.521
2915.89	292.397
2915.15	295.717
2914.41	312.477
2913.66	298.996
2912.92	315.75
2912.17	329.141
2911.43	342.528
2910.68	322.336
2909.94	382.721
2909.19	265.183
2908.45	332.272
2907.7	298.668
2906.96	281.85
2906.21	278.457
2905.47	342.153
2904.72	318.628
2903.98	328.645
2903.23	321.894
2902.49	321.85
2901.74	315.101
2901	274.838
2900.25	294.908
2899.5	328.375
2898.76	375.234
2898.01	321.585
2897.26	294.746
2896.52	294.705
2895.77	334.847
2895.02	321.409
2894.28	301.279
2893.53	307.932
2892.78	291.157
2892.04	304.501
2891.29	321.188
2890.54	334.525
2889.79	321.1
2889.05	314.367
2888.3	314.324
2887.55	351.059
2886.8	314.238
2886.06	244.003
2885.31	304.126
2884.56	304.084
2883.81	317.407
2883.06	317.363
2882.31	317.32
2881.57	283.879
2880.82	347.286
2880.07	320.528
2879.32	287.1
2878.57	290.399
2877.82	260.322
2877.07	310.341
2876.32	296.952
2875.57	320.264
2874.82	353.577
2874.07	310.171
2873.33	310.128
2872.58	320.089
2871.83	320.045
2871.08	280.001
2870.33	359.951
2869.58	276.591
2868.82	283.217
2868.07	293.173
2867.32	283.14
2866.57	356.374
2865.82	323.024
2865.07	316.32
2864.32	306.289
2863.57	296.261
2862.82	342.816
2862.07	332.786
2861.32	326.085
2860.56	329.367
2859.81	296.057
2859.06	319.299
2858.31	315.93
2857.56	269.335
2856.81	299.219
2856.05	325.772
2855.3	312.432
2854.55	322.359
2853.8	282.441
2853.04	312.304
2852.29	318.905
2851.54	345.433
2850.79	318.817
2850.03	288.888
2849.28	295.489
2848.53	322.006
2847.77	325.281
2847.02	325.236
2846.27	288.69
2845.51	288.651
2844.76	331.737
2844.01	325.057
2843.25	301.798
2842.5	298.44
2841.75	298.399
2840.99	318.249
2840.24	314.89
2839.48	361.246
2838.73	371.137
2837.97	331.327
2837.22	321.343
2836.46	304.737
2835.71	324.567
2834.95	324.522
2834.2	314.545
2833.44	354.228
2832.69	350.869
2831.93	311.106
2831.18	317.681
2830.42	281.242
2829.67	267.97
2828.91	334.089
2828.16	330.736
2827.4	324.077
2826.64	310.807
2825.89	320.682
2825.13	307.416
2824.37	307.373
2823.62	330.464
2822.86	317.202
2822.1	320.462
2821.35	333.631
2820.59	320.374
2819.83	313.725
2819.08	307.078
2818.32	303.734
2817.56	386.218
2816.8	283.848
2816.05	323.41
2815.29	316.766
2814.53	323.321
2813.77	326.575
2813.02	290.249
2812.26	329.784
2811.5	323.144
2810.74	300.021
2809.98	293.386
2809.22	352.675
2808.47	322.966
2807.71	336.102
2806.95	342.645
2806.19	296.479
2805.43	316.201
2804.67	289.811
2803.91	289.771
2803.15	299.609
2802.39	316.027
2801.63	299.526
2800.87	338.978
2800.11	312.606
2799.35	276.372
2798.59	319.1
2797.83	315.767
2797.07	348.611
2796.31	338.698
2795.55	318.925
2794.79	345.18
2794.03	348.42
2793.27	299.074
2792.51	345.038
2791.75	325.277
2790.99	338.373
2790.23	325.187
2789.47	305.437
2788.71	308.679
2787.94	295.503
2787.18	357.838
2786.42	328.247
2785.66	344.611
2784.9	377.38
2784.14	321.549
2783.37	344.469
2782.61	337.862
2781.85	324.696
2781.09	344.327
2780.32	304.934
2779.56	347.511
2778.8	370.409
2778.04	337.583
2777.27	353.922
2776.51	350.597
2775.75	360.377
2774.98	334.122
2774.22	347.177
2773.46	298.007
2772.69	320.887
2771.93	343.76
2771.17	310.978
2770.4	350.211
2769.64	340.346
2768.87	333.755
2768.11	320.622
2767.35	376.188
2766.58	313.992
2765.82	320.49
2765.05	353.144
2764.29	333.479
2763.52	395.544
2762.76	346.462
2761.99	346.414
2761.23	343.099
2760.46	310.38
2759.7	326.671
2758.93	336.425
2758.17	352.708
2757.4	368.986
2756.64	378.73
2755.87	326.446
2755.1	342.722
2754.34	365.519
2753.57	349.154
2752.81	352.368
2752.04	319.698
2751.27	345.748
2750.51	401.143
2749.74	339.131
2748.97	374.949
2748.21	342.298
2747.44	407.441
2746.67	384.572
2745.9	400.812
2745.14	426.822
2744.37	397.444
2743.6	394.132
2742.83	420.132
2742.07	390.767
2741.3	406.993
2740.53	413.448
2739.76	397.116
2739	413.334
2738.23	393.752
2737.46	406.713
2736.69	413.164
2735.92	432.624
2735.15	406.545
2734.38	465.024
2733.62	432.445
2732.85	448.641
2732.08	458.331
2731.31	432.267
2730.54	464.704
2729.77	432.148
2729	461.327
2728.23	467.761
2727.46	526.158
2726.69	493.611
2725.92	535.754
2725.15	470.75
2724.38	483.669
2723.61	418.69
2722.84	503.008
2722.07	486.715
2721.3	476.915
2720.53	489.824
2719.76	489.757
2718.99	538.334
2718.22	512.32
2717.44	492.797
2716.67	547.837
2715.9	479.697
2715.13	554.168
2714.36	476.324
2713.59	508.657
2712.82	508.587
2712.04	502.039
2711.27	527.878
2710.5	531.044
2709.73	475.931
2708.95	466.154
2708.18	482.273
2707.41	478.971
2706.64	475.669
2705.86	495.016
2705.09	482.008
2704.32	540.163
2703.55	501.28
2702.77	491.51
2702	472.043
2701.23	481.676
2700.45	484.842
2699.68	442.762
2698.91	468.552
2698.13	513.721
2697.36	416.735
2696.58	442.518
2695.81	442.457
2695.04	494.063
2694.26	500.452
2693.49	442.274
2692.71	497.086
2691.94	464.744
2691.16	432.411
2690.39	500.108
2689.61	448.422
2688.84	461.263
2688.06	467.649
2687.29	441.787
2686.51	486.866
2685.74	454.561
2684.96	486.732
2684.19	464.104
2683.41	438.261
2682.63	476.865
2681.86	492.907
2681.08	402.647
2680.31	441.24
2679.53	428.298
2678.75	412.14
2677.98	450.716
2677.2	444.216
2676.42	437.718
2675.65	431.221
2674.87	472.991
2674.09	456.84
2673.32	427.826
2672.54	427.767
2671.76	411.629
2670.98	427.649
2670.21	459.74
2669.43	388.957
2668.65	443.543
2667.87	420.987
2667.09	469.126
2666.32	427.296
2665.54	379.053
2664.76	427.178
2663.98	414.274
2663.2	411.006
2662.42	378.844
2661.64	401.262
2660.87	436.513
2660.09	449.29
2659.31	381.844
2658.53	349.708
2657.75	407.402
2656.97	407.345
2656.19	400.875
2655.41	375.168
2654.63	400.765
2653.85	403.915
2653.07	410.27
2652.29	365.346
2651.51	378.113
2650.73	384.469
2649.95	342.771
2649.17	349.13
2648.39	384.31
2647.61	416.279
2646.83	400.213
2646.05	364.944
2645.26	368.094
2644.48	336.04
2643.7	345.593
2642.92	358.344
2642.14	383.887
2641.36	339.053
2640.58	377.384
2639.79	383.728
2639.01	370.886
2638.23	377.228
2637.45	345.212
2636.67	338.773
2635.88	341.922
2635.1	364.24
2634.32	332.243
2633.54	402.47
2632.75	357.702
2631.97	328.913
2631.19	370.375
2630.4	347.977
2629.62	370.273
2628.84	344.689
2628.05	366.979
2627.27	335.022
2626.49	360.498
2625.7	344.499
2624.92	334.883
2624.14	357.16
2623.35	318.849
2622.57	392.13
2621.78	379.325
2621	353.776
2620.21	312.299
2619.43	337.747
2618.65	353.629
2617.86	340.839
2617.08	324.867
2616.29	382.144
2615.51	312.041
2614.72	318.365
2613.93	305.588
2613.15	292.815
2612.36	318.234
2611.58	350.009
2610.79	321.327
2610.01	359.455
2609.22	333.961
2608.43	314.834
2607.65	324.33
2606.86	321.106
2606.07	349.671
2605.29	317.839
2604.5	359.108
2603.71	349.526
2602.93	359.009
2602.14	333.546
2601.35	377.967
2600.57	327.103
2599.78	308.006
2598.99	317.488
2598.2	326.967
2597.42	371.358
2596.63	301.489
2595.84	310.967
2595.05	355.341
2594.26	285.503
2593.48	323.525
2592.69	317.138
2591.9	339.29
2591.11	310.709
2590.32	313.836
2589.53	323.302
2588.75	339.103
2587.96	342.225
2587.17	310.495
2586.38	323.123
2585.59	294.572
2584.8	335.702
2584.01	319.823
2583.22	310.281
2582.43	370.386
2581.64	316.525
2580.85	325.976
2580.06	329.096
2579.27	325.886
2578.48	351.149
2577.69	294.166
2576.9	322.589
2576.11	344.679
2575.32	344.632
2574.53	303.487
2573.74	316.089
2572.95	306.564
2572.15	334.962
2571.36	309.639
2570.57	341.187
2569.78	331.664
2568.99	341.093
2568.2	309.468
2567.41	353.629
2566.61	322.01
2565.82	337.748
2565.03	306.141
2564.24	302.943
2563.44	315.522
2562.65	312.323
2561.86	312.28
2561.07	302.775
2560.27	305.887
2559.48	296.386
2558.69	359.397
2557.9	346.739
2557.1	330.932
2556.31	315.13
2555.52	315.086
2554.72	324.494
2553.93	305.549
2553.13	283.46
2552.34	327.509
2551.55	327.464
2550.75	336.863
2549.96	311.634
2549.16	336.77
2548.37	327.283
2547.57	336.677
2546.78	283.147
2545.99	314.564
2545.19	311.376
2544.4	330.201
2543.6	323.867
2542.81	317.535
2542.01	317.491
2541.21	370.878
2540.42	342.544
2539.62	351.923
2538.83	314.173
2538.03	307.847
2537.24	326.65
2536.44	310.903
2535.64	301.44
2534.85	329.654
2534.05	339.026
2533.25	317.008
2532.46	320.103
2531.66	320.059
2530.86	288.64
2530.07	326.244
2529.27	269.741
2528.47	326.154
2527.68	351.194
2526.88	319.793
2526.08	332.288
2525.28	325.974
2524.49	288.321
2523.69	313.35
2522.89	319.572
2522.09	347.722
2521.29	300.691
2520.5	294.386
2519.7	310.002
2518.9	341.268
2518.1	313.046
2517.3	325.523
2516.5	303.571
2515.7	328.562
2514.9	325.388
2514.11	312.83
2513.31	322.17
2512.51	353.4
2511.71	325.208
2510.91	325.163
2510.11	331.371
2509.31	334.451
2508.51	318.778
2507.71	299.985
2506.91	296.819
2506.11	346.762
2505.31	346.714
2504.51	306.065
2503.71	299.778
2502.91	368.426
2502.1	371.496
2501.3	343.353
2500.5	337.063
2499.7	368.222
2498.9	315.129
2498.1	311.966
2497.3	302.565
2496.5	318.117
2495.69	311.837
2494.89	349.209
2494.09	339.808
2493.29	336.644
2492.49	321.014
2491.68	324.086
2490.88	327.157
2490.08	317.765
2489.28	317.722
2488.47	323.907
2487.67	358.116
2486.87	373.635
2486.07	320.659
2485.26	357.968
2484.46	333.02
2483.66	311.19
2482.85	304.924
2482.05	354.659
2481.24	298.619
2480.44	295.467
2479.64	329.633
2478.83	338.916
2478.03	348.196
2477.22	332.605
2476.42	310.803
2475.62	394.665
2474.81	323.145
2474.01	391.449
2473.2	316.843
2472.4	326.117
2471.59	369.548
2470.79	310.502
2469.98	363.237
2469.18	347.666
2468.37	332.099
2467.56	378.603
2466.76	300.978
2465.95	304.039
2465.15	359.833
2464.34	353.58
2463.53	288.407
2462.73	334.878
2461.92	300.729
2461.12	316.186
2460.31	356.435
2459.5	340.891
2458.7	381.125
2457.89	325.306
2457.08	346.945
2456.27	319.021
2455.47	318.977
2454.66	331.318
2453.85	340.561
2453.04	334.322
2452.24	324.99
2451.43	334.23
2450.62	358.938
2449.81	346.513
2449.01	296.97
2448.2	355.696
2447.39	324.721
2446.58	337.044
2445.77	346.273
2444.96	324.586
2444.15	339.995
2443.34	312.134
2442.54	290.461
2441.73	330.585
2440.92	349.074
2440.11	352.115
2439.3	318.095
2438.49	336.578
2437.68	361.231
2436.87	321.049
2436.06	351.871
2435.25	311.702
2434.44	364.116
2433.63	323.957
2432.82	370.185
2432.01	302.276
2431.2	357.746
2430.39	271.356
2429.58	329.899
2428.76	323.688
2427.95	332.89
2427.14	345.171
2426.33	295.82
2425.52	320.427
2424.71	317.302
2423.9	326.499
2423.08	323.374
2422.27	326.408
2421.46	310.969
2420.65	350.946
2419.84	313.96
2419.02	307.762
2418.21	332.337
2417.4	326.137
2416.59	313.786
2415.77	322.971
2414.96	362.907
2414.15	344.407
2413.33	289.015
2412.52	350.46
2411.71	316.599
2410.89	325.776
2410.08	334.949
2409.27	334.903
2408.45	285.703
2407.64	304.093
2406.83	343.977
2406.01	340.859
2405.2	310.108
2404.38	331.554
2403.57	340.717
2402.75	346.808
2401.94	303.798
2401.12	306.825
2400.31	362.003
2399.49	334.346
2398.68	279.094
2397.86	340.386
2397.05	318.876
2396.23	297.372
2395.42	331.049
2394.6	306.484
2393.79	312.571
2392.97	364.615
2392.15	309.42
2391.34	367.577
2390.52	404.279
2389.71	330.728
2388.89	327.62
2388.07	312.267
2387.26	348.956
2386.44	333.605
2385.62	327.438
2384.81	336.572
2383.99	339.585
2383.17	351.773
2382.35	327.257
2381.54	287.457
2380.72	354.685
2379.9	330.178
2379.08	305.678
2378.26	327.03
2377.45	330.04
2376.63	348.328
2375.81	296.343
2374.99	302.411
2374.17	354.291
2373.35	342.027
2372.54	341.979
2371.72	344.985
2370.9	299.149
2370.08	323.524
2369.26	350.945
2368.44	405.819
2367.62	338.644
2366.8	335.546
2365.98	329.4
2365.16	304.958
2364.34	335.407
2363.52	320.117
2362.7	341.41
2361.88	313.932
2361.06	335.221
2360.24	316.892
2359.42	313.801
2358.6	313.758
2357.78	301.531
2356.96	356.305
2356.14	328.852
2355.32	331.85
2354.49	356.157
2353.67	331.758
2352.85	304.323
2352.03	340.795
2351.21	334.663
2350.39	334.616
2349.56	343.694
2348.74	304.112
2347.92	316.233
2347.1	322.269
2346.28	364.782
2345.45	322.18
2344.63	337.33
2343.81	300.82
2342.98	309.893
2342.16	322.001
2341.34	343.217
2340.51	303.69
2339.69	303.648
2338.87	303.606
2338.04	300.528
2337.22	336.909
2336.4	324.723
2335.57	336.815
2334.75	330.701
2333.93	342.789
2333.1	300.278
2332.28	330.563
2331.45	345.678
2330.63	303.184
2329.8	360.739
2328.98	309.162
2328.15	321.241
2327.33	315.137
2326.5	318.122
2325.68	351.401
2324.85	293.803
2324.03	314.961
2323.2	305.834
2322.38	326.984
2321.55	317.857
2320.72	308.733
2319.9	281.453
2319.07	363.114
2318.25	344.911
2317.42	305.536
2316.59	269.197
2315.77	323.597
2314.94	329.6
2314.11	320.484
2313.28	326.485
2312.46	265.988
2311.63	299.195
2310.8	353.545
2309.98	302.133
2309.15	332.3
2308.32	289.967
2307.49	338.248
2306.66	308.004
2305.84	314
2305.01	316.975
2304.18	313.913
2303.35	286.707
2302.52	313.825
2301.69	343.953
2300.87	298.655
2300.04	325.76
2299.21	292.54
2298.38	292.499
2297.55	286.428
2296.72	265.286
2295.89	313.477
2295.06	316.447
2294.23	307.363
2293.4	298.281
2292.57	310.29
2291.74	307.235
2290.91	328.274
2290.08	301.127
2289.25	355.28
2288.42	325.126
2287.59	316.051
2286.76	303.969
2285.93	258.789
2285.1	279.814
2284.27	318.884
2283.44	306.808
2282.61	294.735
2281.77	309.729
2280.94	351.78
2280.11	291.606
2279.28	309.6
2278.45	288.519
2277.62	285.474
2276.78	267.407
2275.95	318.44
2275.12	333.415
2274.29	303.335
2273.45	306.296
2272.62	294.243
2271.79	315.217
2270.96	315.173
2270.12	321.132
2269.29	297.08
2268.46	300.04
2267.62	314.998
2266.79	272.96
2265.96	320.908
2265.12	287.878
2264.29	281.841
2263.45	311.781
2262.62	287.757
2261.79	278.726
2260.95	275.691
2260.12	311.607
2259.28	296.585
2258.45	275.576
2257.61	317.467
2256.78	278.494
2255.94	296.42
2255.11	284.404
2254.27	281.371
2253.44	287.317
2252.6	305.232
2251.77	332.118
2250.93	260.273
2250.1	320.061
2249.26	308.053
2248.42	316.981
2247.59	310.957
2246.75	307.924
2245.92	313.86
2245.08	319.794
2244.24	280.901
2243.41	328.668
2242.57	295.76
2241.73	346.499
2240.89	328.531
2240.06	310.568
2239.22	283.652
2238.38	298.54
2237.55	244.769
2236.71	292.487
2235.87	289.463
2235.03	262.569
2234.19	328.165
2233.36	304.256
2232.52	313.161
2231.68	313.118
2230.84	280.276
2230	286.199
2229.16	324.91
2228.32	301.022
2227.49	277.14
2226.65	280.081
2225.81	315.792
2224.97	282.981
2224.13	303.79
2223.29	291.836
2222.45	270.953
2221.61	324.503
2220.77	282.784
2219.93	303.579
2219.09	276.754
2218.25	294.568
2217.41	300.477
2216.57	270.689
2215.73	300.393
2214.89	315.22
2214.05	324.096
2213.21	252.701
2212.37	321.034
2211.52	285.323
2210.68	285.284
2209.84	255.531
2209	267.379
2208.16	308.928
2207.32	320.765
2206.47	279.146
2205.63	276.138
2204.79	276.099
2203.95	302.776
2203.11	293.83
2202.26	293.789
2201.42	264.077
2200.58	302.607
2199.74	284.767
2198.89	284.727
2198.05	302.481
2197.21	269.823
2196.36	290.538
2195.52	275.676
2194.68	305.276
2193.83	293.38
2192.99	299.265
2192.15	287.373
2191.3	266.597
2190.46	308.025
2189.61	284.291
2188.77	269.447
2187.92	272.37
2187.08	319.694
2186.23	293.012
2185.39	272.256
2184.55	289.971
2183.7	319.515
2182.86	245.519
2182.01	316.469
2181.16	277.98
2180.32	257.244
2179.47	298.598
2178.63	292.644
2177.78	274.87
2176.94	289.607
2176.09	283.657
2175.24	295.435
2174.4	277.67
2173.55	268.771
2172.7	304.171
2171.86	286.412
2171.01	253.897
2170.16	324.707
2169.32	301.05
2168.47	306.91
2167.62	315.719
2166.77	277.322
2165.93	277.283
2165.08	321.486
2164.23	286.053
2163.38	271.27
2162.54	288.921
2161.69	288.881
2160.84	279.999
2159.99	344.792
2159.14	309.386
2158.29	306.396
2157.45	268.06
2156.6	270.967
2155.75	291.544
2154.9	267.947
2154.05	276.742
2153.2	344.408
2152.35	288.438
2151.5	288.398
2150.65	270.703
2149.8	276.549
2148.95	300.043
2148.1	314.707
2147.25	255.848
2146.4	258.752
2145.55	267.536
2144.7	267.499
2143.85	296.853
2143	323.26
2142.15	282.078
2141.3	261.474
2140.45	276.125
2139.6	308.394
2138.74	290.731
2137.89	281.881
2137.04	299.457
2136.19	270.061
2135.34	305.244
2134.49	293.463
2133.63	275.816
2132.78	305.116
2131.93	308.007
2131.08	299.165
2130.22	284.46
2129.37	252.166
2128.52	272.653
2127.67	310.723
2126.81	254.992
2125.96	293.053
2125.11	316.453
2124.25	260.744
2123.4	266.566
2122.55	298.747
2121.69	292.848
2120.84	257.671
2119.99	298.622
2119.13	275.162
2118.28	280.977
2117.42	280.938
2116.57	277.973
2115.71	277.934
2114.86	260.344
2114	277.856
2113.15	239.8
2112.3	298.247
2111.44	292.358
2110.58	263.085
2109.73	268.894
2108.87	251.322
2108.02	298.038
2107.16	324.29
2106.31	259.98
2105.45	292.072
2104.59	259.908
2103.74	262.791
2102.88	280.271
2102.03	274.394
2101.17	271.437
2100.31	256.808
2099.46	239.265
2098.6	309.25
2097.74	277.119
2096.88	306.247
2096.03	250.796
2095.17	311.993
2094.31	291.542
2093.45	300.246
2092.6	247.741
2091.74	314.733
2090.88	294.292
2090.02	320.472
2089.16	262.167
2088.31	238.83
2087.45	265.006
2086.59	267.881
2085.73	270.755
2084.87	285.272
2084.01	267.768
2083.15	305.563
2082.29	285.152
2081.44	299.659
2080.58	273.436
2079.72	285.032
2078.86	267.544
2078	284.952
2077.14	270.376
2076.28	279.059
2075.42	293.552
2074.56	308.041
2073.7	270.225
2072.84	296.334
2071.97	287.578
2071.11	293.347
2070.25	278.786
2069.39	267.132
2068.53	264.192
2067.67	284.474
2066.81	267.02
2065.95	275.689
2065.09	237.93
2064.22	272.711
2063.36	263.97
2062.5	313.239
2061.64	240.697
2060.78	284.156
2059.91	234.831
2059.05	249.292
2058.19	260.85
2057.33	292.691
2056.46	269.47
2055.6	254.946
2054.74	249.117
2053.87	298.32
2053.01	295.382
2052.15	286.654
2051.28	292.404
2050.42	260.522
2049.56	289.428
2048.69	280.706
2047.83	245.945
2046.96	231.445
2046.1	242.984
2045.24	283.441
2044.37	268.942
2043.51	271.796
2042.64	303.559
2041.78	300.626
2040.91	274.572
2040.05	222.517
2039.18	231.154
2038.32	286.013
2037.45	265.752
2036.59	257.051
2035.72	251.239
2034.85	262.753
2033.99	274.265
2033.12	248.247
2032.26	233.781
2031.39	291.464
2030.52	256.799
2029.66	259.648
2028.79	271.15
2027.92	242.27
2027.06	282.609
2026.19	279.686
2025.32	285.412
2024.45	273.842
2023.59	273.804
2022.72	299.701
2021.85	262.202
2020.98	273.689
2020.12	241.965
2019.25	293.773
2018.38	264.935
2017.51	293.691
2016.64	279.255
2015.77	305.122
2014.91	270.542
2014.04	276.26
2013.17	261.835
2012.3	241.66
2011.43	241.626
2010.56	255.972
2009.69	261.688
2008.82	287.529
2007.95	270.239
2007.08	301.821
2006.21	250.045
2005.34	281.62
2004.47	235.608
2003.6	290.16
2002.73	272.884
2001.86	275.718
2000.99	258.45
2000.12	281.383
1999.25	261.248
1998.38	278.434
1997.51	264.045
1996.64	238.181
1995.77	246.755
1994.89	246.721
1994.02	275.371
1993.15	269.596
1992.28	281.029
1991.41	283.856
1990.53	295.284
1989.66	260.845
1988.79	217.818
1987.92	277.966
1987.05	252.14
1986.17	214.862
1985.3	280.713
1984.43	272.082
1983.55	297.816
1982.68	263.416
1981.81	274.83
1980.93	240.443
1980.06	246.133
1979.19	260.407
1978.31	274.676
1977.44	223.143
1976.57	254.576
1975.69	248.821
1974.82	268.803
1973.94	257.328
1973.07	248.716
1972.19	231.53
1971.32	268.652
1970.44	262.899
1969.57	285.72
1968.69	279.966
1967.82	245.65
1966.94	279.888
1966.07	296.982
1965.19	259.823
1964.32	228.383
1963.44	254.041
1962.56	265.421
1961.69	299.627
1960.81	248.228
1959.94	282.426
1959.06	236.748
1958.18	250.975
1957.31	296.565
1956.43	279.416
1955.55	262.273
1954.68	267.936
1953.8	284.999
1952.92	273.56
1952.04	233.633
1951.17	264.937
1950.29	256.355
1949.41	227.839
1948.53	273.368
1947.65	253.4
1946.78	244.824
1945.9	270.407
1945.02	264.677
1944.14	264.64
1943.26	264.603
1942.38	250.342
1941.5	261.684
1940.63	273.023
1939.75	261.61
1938.87	264.417
1937.99	221.738
1937.11	267.185
1936.23	281.357
1935.35	213.12
1934.47	224.454
1933.59	252.831
1932.71	201.668
1931.83	244.24
1930.95	252.724
1930.07	258.367
1929.19	272.525
1928.31	244.103
1927.43	269.61
1926.54	232.684
1925.66	261.023
1924.78	252.476
1923.9	260.95
1923.02	243.897
1922.14	263.712
1921.26	260.84
1920.37	289.151
1919.49	257.932
1918.61	255.062
1917.73	260.693
1916.84	257.823
1915.96	249.289
1915.08	257.751
1914.2	243.554
1913.31	249.183
1912.43	229.33
1911.55	249.113
1910.66	249.078
1909.78	251.873
1908.9	206.564
1908.01	260.29
1907.13	240.452
1906.25	254.56
1905.36	214.932
1904.48	217.729
1903.59	254.453
1902.71	234.629
1901.83	254.381
1900.94	226.085
1900.06	251.484
1899.17	248.623
1898.29	259.888
1897.4	251.378
1896.52	248.519
1895.63	251.307
1894.74	228.686
1893.86	270.997
1892.97	256.846
1892.09	262.454
1891.2	282.169
1890.32	256.738
1889.43	256.702
1888.54	301.794
1887.66	270.73
1886.77	248.134
1885.88	293.208
1885	290.348
1884.11	281.852
1883.22	253.631
1882.33	259.231
1881.45	216.934
1880.56	236.622
1879.67	247.855
1878.78	230.923
1877.9	259.048
1877.01	236.489
1876.12	253.346
1875.23	250.495
1874.34	236.389
1873.46	230.729
1872.57	264.456
1871.68	225.038
1870.79	264.382
1869.9	247.472
1869.01	222.131
1868.12	253.025
1867.23	255.8
1866.34	247.332
1865.45	261.349
1864.56	289.41
1863.67	258.466
1862.78	286.519
1861.89	300.522
1861	241.507
1860.11	247.089
1859.22	269.513
1858.33	232.984
1857.44	221.725
1856.55	260.981
1855.66	232.886
1854.77	252.491
1853.88	277.701
1852.99	260.834
1852.09	207.516
1851.2	252.349
1850.31	229.885
1849.42	257.884
1848.53	269.058
1847.63	252.207
1846.74	232.558
1845.85	215.716
1844.96	226.89
1844.06	235.26
1843.17	252.029
1842.28	240.794
1841.39	249.159
1840.49	237.927
1839.6	207.107
1838.71	235.062
1837.81	226.635
1836.92	257.376
1836.03	282.514
1835.13	251.71
1834.24	232.1
1833.34	223.679
1832.45	234.83
1831.55	254.363
1830.66	209.61
1829.77	245.908
1828.87	245.874
1827.98	248.633
1827.08	256.977
1826.19	231.805
1825.29	262.49
1824.4	248.492
1823.5	242.874
1822.6	267.961
1821.71	226.06
1820.81	262.305
1819.92	253.897
1819.02	278.969
1818.12	228.722
1817.23	239.846
1816.33	231.446
1815.43	211.897
1814.54	253.683
1813.64	214.624
1812.74	256.398
1811.85	253.575
1810.95	247.967
1810.05	275.79
1809.15	222.829
1808.26	256.217
1807.36	250.612
1806.46	245.008
1805.56	247.758
1804.66	261.64
1803.77	253.254
1802.87	239.305
1801.97	225.36
1801.07	247.583
1800.17	230.859
1799.27	230.827
1798.37	258.601
1797.47	255.784
1796.58	266.868
1795.68	227.917
1794.78	211.211
1793.88	200.066
1792.98	227.821
1792.08	222.233
1791.18	252.754
1790.28	249.941
1789.38	216.585
1788.48	208.226
1787.57	235.956
1786.67	230.371
1785.77	252.54
1784.87	224.757
1783.97	252.469
1783.07	255.207
1782.17	232.982
1781.27	221.857
1780.37	216.28
1779.46	219.022
1778.56	249.483
1777.66	210.645
1776.76	243.87
1775.86	249.378
1774.95	224.408
1774.05	227.146
1773.15	260.351
1772.25	257.545
1771.34	224.281
1770.44	215.944
1769.54	238.059
1768.63	221.419
1767.73	273.967
1766.83	235.191
1765.92	213.025
1765.02	215.761
1764.11	243.389
1763.21	254.416
1762.31	240.555
1761.4	232.227
1760.5	248.78
1759.59	237.689
1758.69	257
1757.78	232.096
1756.88	245.876
1755.97	223.744
1755.07	262.378
1754.16	231.965
1753.26	245.738
1752.35	251.224
1751.45	218.065
1750.54	248.393
1749.63	234.561
1748.73	251.082
1747.82	234.494
1746.92	237.219
1746.01	289.588
1745.1	245.425
1744.2	264.691
1743.29	215.031
1742.38	239.808
1741.48	253.555
1740.57	236.985
1739.66	281.035
1738.75	283.751
1737.85	234.13
1736.94	250.621
1736.03	247.832
1735.12	200.991
1734.21	220.233
1733.31	222.954
1732.4	228.427
1731.49	280.678
1730.58	250.374
1729.67	225.579
1728.76	233.799
1727.85	228.266
1726.94	217.234
1726.04	206.206
1725.13	228.169
1724.22	255.623
1723.31	236.349
1722.4	225.324
1721.49	211.555
1720.58	217.019
1719.67	225.229
1718.76	249.914
1717.85	236.149
1716.94	255.334
1716.02	241.572
1715.11	197.622
1714.2	241.504
1713.29	260.678
1712.38	252.41
1711.47	238.658
1710.56	257.824
1709.65	257.788
1708.73	233.073
1707.82	257.715
1706.91	263.161
1706	238.456
1705.09	274.048
1704.17	282.23
1703.26	232.875
1702.35	252.017
1701.44	251.982
1700.52	249.208
1699.61	292.983
1698.7	221.759
1697.78	243.627
1696.87	243.593
1695.96	216.192
1695.04	202.48
1694.13	232.546
1693.22	273.545
1692.3	246.155
1691.39	240.651
1690.47	213.274
1689.56	243.317
1688.64	226.881
1687.73	237.782
1686.81	248.679
1685.9	265.038
1684.98	240.413
1684.07	223.989
1683.15	243.076
1682.24	245.772
1681.32	270.311
1680.41	259.353
1679.49	270.235
1678.57	286.572
1677.66	221.038
1676.74	234.65
1675.83	242.801
1674.91	245.494
1673.99	240.005
1673.08	286.328
1672.16	256.296
1671.24	294.426
1670.32	234.417
1669.41	239.835
1668.49	239.801
1667.57	234.317
1666.65	261.527
1665.74	272.385
1664.82	256.006
1663.9	220.569
1662.98	272.269
1662.06	242.285
1661.15	253.139
1660.23	236.774
1659.31	209.528
1658.39	217.661
1657.47	263.877
1656.55	247.519
1655.63	209.41
1654.71	225.695
1653.79	233.82
1652.87	244.661
1651.95	247.344
1651.03	260.897
1650.11	228.253
1649.19	241.805
1648.27	255.353
1647.35	247.169
1646.43	249.849
1645.51	282.399
1644.59	252.494
1643.67	252.458
1642.75	252.422
1641.83	222.534
1640.91	241.497
1639.99	230.61
1639.06	217.014
1638.14	246.819
1637.22	225.088
1636.3	263.018
1635.38	281.958
1634.45	235.836
1633.53	233.092
1632.61	208.669
1631.69	249.283
1630.76	260.085
1629.84	265.466
1628.92	238.343
1627.99	259.974
1627.07	292.429
1626.15	262.608
1625.22	300.467
1624.3	330.196
1623.38	316.619
1622.45	297.634
1621.53	303.002
1620.6	319.189
1619.68	283.984
1618.76	313.69
1617.83	297.423
1616.91	327.118
1615.98	324.369
1615.06	332.431
1614.13	294.551
1613.21	313.423
1612.28	316.08
1611.35	307.932
1610.43	321.392
1609.5	307.844
1608.58	332.101
1607.65	288.86
1606.73	310.413
1605.8	304.971
1604.87	326.515
1603.95	296.79
1603.02	291.352
1602.09	339.863
1601.17	320.936
1600.24	323.587
1599.31	355.895
1598.38	323.495
1597.46	358.49
1596.53	347.659
1595.6	361.083
1594.67	363.726
1593.74	396
1592.82	425.573
1591.89	436.285
1590.96	417.374
1590.03	498.085
1589.1	463.019
1588.17	511.401
1587.24	473.652
1586.32	575.836
1585.39	540.778
1584.46	575.672
1583.53	624.005
1582.6	621.227
1581.67	696.428
1580.74	782.362
1579.81	741.929
1578.88	714.946
1577.95	639.597
1577.02	663.689
1576.09	658.222
1575.16	658.128
1574.23	577.459
1573.29	545.151
1572.36	523.593
1571.43	472.509
1570.5	475.126
1569.57	458.955
1568.64	410.586
1567.71	448.092
1566.77	415.835
1565.84	402.364
1564.91	391.578
1563.98	332.526
1563.05	375.379
1562.11	335.112
1561.18	359.189
1560.25	329.657
1559.31	300.133
1558.38	334.922
1557.45	326.837
1556.52	329.469
1555.58	294.606
1554.65	305.275
1553.71	307.909
1552.78	289.126
1551.85	310.498
1550.91	243.546
1549.98	291.678
1549.04	288.961
1548.11	296.946
1547.17	307.603
1546.24	272.791
1545.31	299.493
1544.37	283.409
1543.43	251.289
1542.5	267.291
1541.56	264.58
1540.63	315.313
1539.69	240.459
1538.76	264.467
1537.82	267.1
1536.88	267.062
1535.95	275.035
1535.01	253.637
1534.08	269.618
1533.14	274.918
1532.2	269.541
1531.27	274.84
1530.33	274.8
1529.39	261.423
1528.45	264.053
1527.52	240.014
1526.58	207.983
1525.64	247.944
1524.7	269.235
1523.77	263.866
1522.83	293.142
1521.89	255.797
1520.95	266.417
1520.01	263.715
1519.07	255.688
1518.13	239.673
1517.2	234.314
1516.26	228.956
1515.32	250.218
1514.38	244.86
1513.44	271.436
1512.5	255.433
1511.56	250.076
1510.62	260.68
1509.68	242.026
1508.74	260.606
1507.8	255.251
1506.86	273.824
1505.92	279.101
1504.98	247.169
1504.04	239.162
1503.1	268.354
1502.16	236.437
1501.21	236.403
1500.27	249.649
1499.33	244.302
1498.39	246.923
1497.45	249.542
1496.51	246.852
1495.56	236.201
1494.62	275.971
1493.68	273.279
1492.74	236.1
1491.79	273.201
1490.85	281.118
1489.91	275.775
1488.97	220.058
1488.02	259.791
1487.08	233.248
1486.14	230.565
1485.19	243.781
1484.25	283.487
1483.31	243.711
1482.36	262.217
1481.42	251.587
1480.47	256.847
1479.53	227.687
1478.59	270.009
1477.64	280.558
1476.7	248.761
1475.75	285.77
1474.81	267.21
1473.86	272.462
1472.92	235.395
1471.97	264.451
1471.02	256.481
1470.08	216.788
1469.13	272.268
1468.19	227.298
1467.24	280.118
1466.3	248.371
1465.35	240.41
1464.4	216.602
1463.46	258.829
1462.51	264.074
1461.56	256.115
1460.62	266.639
1459.67	256.042
1458.72	290.316
1457.77	282.358
1456.83	269.125
1455.88	250.62
1454.93	282.237
1453.98	255.823
1453.03	253.15
1452.09	292.662
1451.14	334.8
1450.19	274.128
1449.24	281.995
1448.29	279.32
1447.34	247.664
1446.39	266.069
1445.45	271.299
1444.5	279.161
1443.55	273.854
1442.6	286.979
1441.65	268.511
1440.7	244.784
1439.75	276.33
1438.8	299.972
1437.85	281.513
1436.9	231.492
1435.95	294.584
1435	241.945
1434.05	260.316
1433.09	297.086
1432.14	252.356
1431.19	239.178
1430.24	283.819
1429.29	278.524
1428.34	244.33
1427.39	260.056
1426.43	254.766
1425.48	259.982
1424.53	241.565
1423.58	299.288
1422.63	278.245
1421.67	267.707
1420.72	278.166
1419.77	291.245
1418.81	257.099
1417.86	249.193
1416.91	278.007
1415.96	267.478
1415	243.842
1414.05	285.753
1413.09	275.227
1412.14	272.567
1411.19	248.944
1410.23	269.869
1409.28	269.83
1408.32	251.457
1407.37	290.705
1406.41	254.003
1405.46	248.731
1404.5	256.549
1403.55	259.129
1402.59	280.029
1401.64	251.205
1400.68	269.484
1399.73	240.669
1398.77	274.638
1397.82	282.444
1396.86	240.566
1395.9	287.592
1394.95	222.199
1393.99	303.193
1393.03	303.149
1392.08	253.459
1391.12	250.81
1390.16	295.183
1389.21	292.528
1388.25	276.818
1387.29	268.945
1386.33	276.739
1385.38	302.803
1384.42	260.999
1383.46	313.155
1382.5	268.753
1381.54	292.194
1380.59	281.718
1379.63	255.597
1378.67	299.892
1377.71	289.42
1376.75	286.771
1375.79	310.19
1374.83	323.177
1373.87	310.101
1372.91	343.929
1371.95	323.038
1370.99	320.387
1370.03	312.528
1369.07	356.752
1368.11	343.683
1367.15	330.617
1366.19	307.143
1365.23	309.702
1364.27	377.314
1363.31	327.826
1362.35	374.605
1361.39	351.142
1360.43	382.299
1359.47	361.442
1358.5	405.589
1357.54	397.733
1356.58	421.069
1355.62	361.235
1354.66	389.767
1353.69	389.711
1352.73	358.483
1351.77	402.586
1350.81	394.737
1349.84	399.874
1348.88	384.24
1347.92	407.547
1346.95	373.748
1345.99	394.455
1345.03	472.24
1344.06	428.069
1343.1	350.188
1342.14	396.823
1341.17	409.732
1340.21	391.523
1339.24	388.875
1338.28	362.898
1337.31	388.763
1336.35	367.977
1335.39	367.924
1334.42	347.146
1333.45	378.18
1332.49	357.406
1331.52	388.429
1330.56	331.412
1329.59	354.664
1328.63	320.964
1327.66	359.738
1326.7	315.696
1325.73	326
1324.76	313.019
1323.8	328.493
1322.83	341.377
1321.86	312.884
1320.9	289.57
1319.93	305.039
1318.96	281.733
1317.99	335.964
1317.03	258.397
1316.06	315.199
1315.09	309.987
1314.12	299.612
1313.15	265.996
1312.19	294.361
1311.22	286.574
1310.25	283.952
1309.28	271.006
1308.31	314.838
1307.34	307.052
1306.37	263.15
1305.41	299.225
1304.44	291.445
1303.47	244.985
1302.5	232.058
1301.53	299.054
1300.56	257.768
1299.59	280.927
1298.62	288.617
1297.65	288.576
1296.68	270.501
1295.71	285.917
1294.74	267.848
1293.76	257.509
1292.79	262.622
1291.82	239.415
1290.85	288.286
1289.88	321.702
1288.91	259.898
1287.94	277.871
1286.96	293.266
1285.99	275.219
1285.02	272.607
1284.05	272.568
1283.08	277.671
1282.1	298.197
1281.13	295.584
1280.16	226.153
1279.19	246.677
1278.21	244.073
1277.24	285.139
1276.27	251.708
1275.29	269.648
1274.32	267.042
1273.34	261.869
1272.37	231.028
1271.4	256.661
1270.42	243.793
1269.45	236.06
1268.47	302.729
1267.5	238.557
1266.52	251.347
1265.55	269.262
1264.57	238.455
1263.6	271.748
1262.62	264.019
1261.65	261.418
1260.67	248.568
1259.7	307.463
1258.72	228.002
1257.75	261.268
1256.77	243.303
1255.79	245.829
1254.82	271.397
1253.84	268.798
1252.86	248.282
1251.89	271.28
1250.91	278.918
1249.93	273.761
1248.95	271.163
1247.98	268.566
1247	242.954
1246.02	248.033
1245.04	271.007
1244.07	296.531
1243.09	219.811
1242.11	242.779
1241.13	235.079
1240.15	273.367
1239.17	250.338
1238.2	237.532
1237.22	252.82
1236.24	237.463
1235.26	227.217
1234.28	227.184
1233.3	250.122
1232.32	260.294
1231.34	267.911
1230.36	216.849
1229.38	262.732
1228.4	244.842
1227.42	244.806
1226.44	260.069
1225.46	252.384
1224.48	226.858
1223.5	275.249
1222.52	244.63
1221.53	262.43
1220.55	236.918
1219.57	236.884
1218.59	239.396
1217.61	241.908
1216.63	226.597
1215.64	241.839
1214.66	267.257
1213.68	254.494
1212.7	264.635
1211.71	259.509
1210.73	244.209
1209.75	234
1208.77	246.681
1207.78	254.274
1206.8	246.61
1205.82	228.781
1204.83	261.789
1203.85	261.752
1202.86	223.6
1201.88	231.19
1200.9	251.478
1199.91	241.283
1198.93	236.169
1197.94	248.83
1196.96	258.949
1195.97	258.912
1194.99	236.033
1194	251.225
1193.02	225.816
1192.03	223.247
1191.05	276.482
1190.06	263.761
1189.07	228.222
1188.09	248.472
1187.1	248.437
1186.12	238.262
1185.13	235.693
1184.14	266.067
1183.16	278.697
1182.17	265.991
1181.18	258.354
1180.2	238.056
1179.21	240.554
1178.22	260.774
1177.23	283.519
1176.25	217.671
1175.26	263.192
1174.27	245.442
1173.28	283.356
1172.29	258.019
1171.3	247.865
1170.32	268.06
1169.33	270.55
1168.34	245.23
1167.35	242.666
1166.36	242.632
1165.37	229.961
1164.38	252.668
1163.39	232.421
1162.4	255.121
1161.41	272.764
1160.42	277.775
1159.43	282.785
1158.44	275.17
1157.45	265.034
1156.46	247.33
1155.47	305.332
1154.48	287.627
1153.49	234.609
1152.5	262.321
1151.51	247.151
1150.51	216.857
1149.52	259.686
1148.53	249.565
1147.54	272.214
1146.55	264.614
1145.56	257.017
1144.56	254.46
1143.57	259.462
1142.58	254.387
1141.59	234.204
1140.59	266.903
1139.6	239.171
1138.61	274.378
1137.61	274.339
1136.62	276.816
1135.63	226.453
1134.63	246.546
1133.64	226.387
1132.64	264.081
1131.65	233.866
1130.66	231.318
1129.66	258.938
1128.67	268.955
1127.67	263.89
1126.68	314.11
1125.68	288.939
1124.69	253.727
1123.69	261.226
1122.7	308.906
1121.7	258.64
1120.7	301.284
1119.71	273.627
1118.71	268.568
1117.72	263.51
1116.72	281.036
1115.72	296.049
1114.73	288.481
1113.73	273.39
1112.73	243.257
1111.74	260.774
1110.74	285.807
1109.74	298.3
1108.74	320.814
1107.75	290.695
1106.75	278.125
1105.75	293.117
1104.75	288.065
1103.76	262.978
1102.76	265.444
1101.76	285.436
1100.76	265.367
1099.76	270.335
1098.76	247.771
1097.76	262.75
1096.76	252.704
1095.76	282.687
1094.77	270.14
1093.77	285.106
1092.77	265.061
1091.77	235.02
1090.77	264.984
1089.77	264.946
1088.77	237.417
1087.76	257.373
1086.76	282.32
1085.76	317.252
1084.76	274.745
1083.76	312.165
1082.76	294.641
1081.76	267.136
1080.76	294.556
1079.76	274.547
1078.75	301.958
1077.75	289.438
1076.75	266.943
1075.75	286.86
1074.75	291.807
1073.74	271.815
1072.74	296.709
1071.74	249.299
1070.73	259.234
1069.73	316.519
1068.73	308.997
1067.72	274.071
1066.72	274.031
1065.72	278.973
1064.71	268.971
1063.71	273.912
1062.71	251.465
1061.7	266.365
1060.7	276.283
1059.69	266.288
1058.69	271.226
1057.68	313.482
1056.68	268.66
1055.67	295.981
1054.67	295.938
1053.66	298.382
1052.66	275.963
1051.65	278.409
1050.64	273.398
1049.64	285.784
1048.63	288.227
1047.63	268.31
1046.62	285.66
1045.61	330.324
1044.61	325.309
1043.6	325.262
1042.59	362.454
1041.59	335.097
1040.58	312.712
1039.57	377.185
1038.56	396.98
1037.56	419.249
1036.55	394.384
1035.54	441.448
1034.53	443.864
1033.52	438.841
1032.51	441.256
1031.51	443.671
1030.5	475.824
1029.49	498.056
1028.48	493.029
1027.47	540.024
1026.46	507.747
1025.45	539.868
1024.44	567.027
1023.43	566.945
1022.42	589.141
1021.41	628.656
1020.4	591.445
1019.39	680.434
1018.38	648.174
1017.37	662.922
1016.36	645.513
1015.35	731.971
1014.34	766.48
1013.33	682.315
1012.31	699.519
1011.3	761.204
1010.29	775.92
1009.28	778.278
1008.27	857.217
1007.25	871.913
1006.24	839.681
1005.23	893.884
1004.22	878.941
1003.2	905.968
1002.19	935.455
1001.18	1011.82
1000.17	962.327
999.152	1004.13
998.139	1045.92
997.125	1129.63
996.111	1200.98
995.097	1336.42
994.083	1309.11
993.069	1427.24
992.055	1533.01
991.04	1680.64
990.026	1766.64
989.011	1951.15
987.996	2086.34
986.981	2238.74
985.966	2162.08
984.95	2321.8
983.935	2392.86
982.919	2422.05
981.903	2463.53
980.887	2463.18
979.871	2561.23
978.855	2467.38
977.838	2383.4
976.822	2483.88
975.805	2444.18
974.788	2475.79
973.771	2433.64
972.754	2492.27
971.737	2482.08
970.719	2444.86
969.702	2333.95
968.684	2426.96
967.666	2375.03
966.648	2509.75
965.63	2484.83
964.612	2445.19
963.593	2417.84
962.575	2461.66
961.556	2387.69
960.537	2355.44
959.518	2411.53
958.499	2315.51
957.479	2462.33
956.46	2356.53
955.44	2294.89
954.42	2436.74
953.4	2296.68
952.38	2328.2
951.36	2349.92
950.34	2254.02
949.319	2307.59
948.298	2378.29
947.278	2302.02
946.257	2294.34
945.235	2365.01
944.214	2330.39
943.193	2437.75
942.171	2505.91
941.149	2468.85
940.128	2431.79
939.105	2299.35
938.083	2225.64
937.061	1985.67
936.039	1929.14
935.016	1818.85
933.993	1618.15
932.97	1466.39
931.947	1414.86
930.924	1302.27
929.901	1165.27
928.877	1057.63
927.853	952.462
926.83	832.673
925.806	771.514
924.781	739.667
923.757	676.099
922.733	629.633
921.708	641.741
920.684	675.804
919.659	580.571
918.634	548.779
917.609	514.558
916.583	604.701
915.558	543.664
914.532	580.149
913.506	570.315
912.481	531.242
911.455	545.784
910.428	533.524
909.402	550.497
908.375	516.321
907.349	538.162
906.322	559.996
905.295	496.62
904.268	542.795
903.241	513.512
902.213	520.737
901.186	552.29
900.158	537.614
899.13	493.755
898.102	500.979
897.074	486.316
896.046	478.952
895.017	561.532
893.989	510.409
892.96	573.519
891.931	517.55
890.902	500.469
889.873	514.97
888.844	527.039
887.814	543.961
886.785	519.602
885.755	509.815
884.725	504.886
883.695	512.094
882.665	512.019
881.634	494.961
880.604	521.574
879.573	477.838
878.542	567.501
877.511	489.823
876.48	552.789
875.449	521.195
874.417	513.847
873.386	530.737
872.354	494.313
871.322	528.159
870.29	482.057
869.258	518.317
868.226	494.025
867.193	523.009
866.16	503.565
865.128	542.222
864.095	486.476
863.062	483.986
862.028	459.719
860.995	532.229
859.961	522.476
858.928	510.307
857.894	522.324
856.86	481.145
855.826	481.075
854.791	536.598
853.757	522.02
852.722	526.776
851.688	495.291
850.653	558.027
849.618	499.977
848.583	499.904
847.547	480.514
846.512	521.487
845.476	473.133
844.44	511.681
843.404	475.408
842.368	487.403
841.332	499.395
840.295	518.619
839.259	479.954
838.222	520.88
837.185	520.804
836.148	484.566
835.111	544.756
834.074	503.705
833.036	522.91
831.999	534.88
830.961	532.393
829.923	575.672
828.885	534.646
827.847	580.32
826.808	560.974
825.77	551.263
824.731	551.183
823.692	546.289
822.653	543.804
821.614	560.565
820.575	546.05
819.536	526.73
818.496	548.296
817.456	509.745
816.416	514.479
815.376	545.652
814.336	523.942
813.296	538.284
812.255	530.997
811.215	533.322
810.174	518.832
809.133	516.355
808.092	525.885
807.051	506.6
806.009	484.921
804.968	492.051
803.926	491.979
802.884	527.901
801.842	499.033
800.8	486.966
799.758	520.474
798.715	496.417
797.672	465.173
796.63	477.092
795.587	500.993
794.544	488.936
793.5	500.847
792.457	488.794
791.414	498.305
790.37	450.325
789.326	438.285
788.282	457.378
787.238	486.043
786.194	462.032
785.149	454.784
784.104	466.684
783.06	521.652
782.015	500.043
780.97	461.695
779.925	447.276
778.879	447.211
777.834	466.275
776.788	396.873
775.742	454.186
774.696	446.95
773.65	399.089
772.604	446.819
771.557	408.529
770.511	429.967
769.464	406.021
768.417	401.186
767.37	367.7
766.323	405.843
765.275	443.975
764.228	420.044
763.18	388.961
762.132	429.465
761.085	434.173
760.036	400.717
758.988	436.431
757.94	431.598
756.891	436.304
755.842	369.493
754.793	419.492
753.744	421.813
752.695	414.603
751.646	390.719
750.596	414.482
749.547	409.658
748.497	369.115
747.447	407.157
746.397	399.956
745.347	392.756
744.296	387.939
743.246	380.743
742.195	406.86
741.144	416.316
740.093	363.926
739.042	406.681
737.99	394.732
736.939	363.766
735.887	368.467
734.835	411.197
733.783	375.489
732.731	380.186
731.679	420.52
730.627	353.945
729.574	384.77
728.521	394.212
727.468	398.904
726.415	370.356
725.362	377.423
724.309	374.995
723.255	393.924
722.202	396.239
721.148	379.575
720.094	360.543
719.04	369.977
717.986	391.264
716.931	424.4
715.877	417.227
714.822	405.314
713.767	417.104
712.712	407.565
711.657	405.136
710.601	376.65
709.546	383.701
708.49	388.381
707.434	383.588
706.378	416.677
705.322	392.944
704.266	407.088
703.209	456.723
702.153	414.067
701.096	430.566
700.039	428.138
698.982	451.726
697.925	480.036
696.868	453.958
695.81	418.431
694.752	430.188
693.695	439.578
692.637	411.158
691.578	458.35
690.52	434.66
689.462	496.007
688.403	488.849
687.344	476.972
686.285	455.654
685.226	514.601
684.167	498.004
683.108	505.01
682.048	571.003
680.988	490.707
679.929	542.529
678.869	509.431
677.808	570.668
676.748	551.722
675.688	575.215
674.627	563.346
673.566	549.122
672.505	589.101
671.444	577.234
670.383	560.659
669.322	565.288
668.26	588.755
667.198	565.122
666.136	583.874
665.074	597.912
664.012	555.459
662.95	583.617
661.887	543.531
660.825	550.509
659.762	564.542
658.699	517.421
657.636	493.829
656.573	564.293
655.509	521.895
654.446	533.571
653.382	507.641
652.318	488.767
651.254	519.239
650.19	476.878
649.125	540.226
648.061	542.495
646.996	500.149
645.931	516.51
644.866	511.74
643.801	518.706
642.736	506.896
641.67	511.514
640.605	504.401
639.539	520.747
638.473	473.763
637.407	499.489
636.341	494.726
635.274	525.13
634.208	525.053
633.141	520.288
632.074	496.779
631.007	489.677
629.94	503.661
628.872	550.432
627.805	536.3
626.737	512.805
625.67	519.753
624.602	545.427
623.533	564.071
622.465	615.472
621.397	608.362
620.328	610.613
619.259	601.166
618.19	638.499
617.121	556.558
616.052	561.153
614.983	610.164
613.913	617.087
612.844	563.243
611.774	560.823
610.704	546.722
609.633	546.642
608.563	516.197
607.493	516.121
606.422	509.04
605.351	445.928
604.28	504.221
603.209	424.791
602.138	499.406
601.066	466.666
599.995	468.93
598.923	503.851
597.851	454.798
596.779	478.051
595.707	463.991
594.635	463.923
593.562	440.545
592.489	431.158
591.416	428.765
590.343	458.99
589.27	400.684
588.197	402.954
587.123	407.552
586.05	414.478
584.976	423.73
583.902	412.028
582.828	488.775
581.754	388.635
580.679	432.788
579.605	416.439
578.53	402.421
577.455	446.551
576.38	423.231
575.305	474.321
574.229	434.73
573.154	455.586
572.078	460.167
571.002	474.042
569.926	473.972
568.85	478.549
567.774	473.833
566.697	466.796
565.621	508.524
564.544	510.77
563.467	508.374
562.39	547.756
561.312	489.659
560.235	512.79
559.157	524.314
558.08	498.721
557.002	545.033
555.924	547.272
554.845	609.794
553.767	602.749
552.689	570.209
551.61	597.936
550.531	627.972
549.452	674.218
548.373	664.852
547.293	674.019
546.214	717.922
545.134	771.073
544.054	847.361
542.974	824.087
541.894	879.514
540.814	877.071
539.733	999.574
538.653	1091.97
537.572	1108
536.491	1204.97
535.41	1327.36
534.329	1417.33
533.247	1602.07
532.166	1724.34
531.084	2082.3
530.002	2313.07
528.92	2786.37
527.838	3481.29
526.756	4420.84
525.673	5847.4
524.59	8508.88
523.507	13471.4
522.424	23480.8
521.341	42567.1
520.258	61486.3
519.174	61246.4
518.091	43092.7
517.007	24889
515.923	14373.1
514.839	9147.88
513.755	6315.19
512.67	4610.63
511.586	3551.96
510.501	2813.96
509.416	2327.34
508.331	2027.48
507.245	1799.12
506.16	1554.71
505.075	1349.52
503.989	1250.31
502.903	1162.64
501.817	1109.52
500.731	1014.99
499.644	927.398
498.558	899.65
497.471	869.61
496.384	825.777
495.297	781.958
494.21	708.257
493.123	767.932
492.035	719.542
490.947	671.167
489.86	712.435
488.772	689.352
487.684	647.895
486.595	624.828
485.507	638.516
484.418	649.905
483.329	587.813
482.24	585.43
481.151	583.048
480.062	624.274
478.973	578.286
477.883	589.673
476.793	545.998
475.703	568.855
474.613	499.968
473.523	580.152
472.433	499.82
471.342	543.302
470.251	543.222
469.161	497.307
468.07	488.068
466.978	499.451
465.887	458.144
464.795	464.948
463.704	471.749
462.612	503.735
461.52	460.163
460.428	453.228
459.335	453.161
458.243	457.67
457.15	475.907
456.057	478.124
454.965	482.628
453.871	535.158
452.778	539.652
451.685	571.581
450.591	544.064
449.497	594.268
448.403	543.903
447.309	653.502
446.215	619.135
445.12	589.348
444.026	632.656
442.931	650.831
441.836	671.285
440.741	634.658
439.646	739.564
438.55	693.809
437.455	753.037
436.359	759.77
435.263	771.064
434.167	791.478
433.071	770.836
431.975	818.607
430.878	766.048
429.781	729.462
428.685	804.568
427.588	811.286
426.49	710.909
425.393	751.812
424.295	744.867
423.198	792.585
422.1	758.31
421.002	701.276
419.904	730.767
418.805	739.763
417.707	739.654
416.608	696.31
415.51	687.106
414.411	721.127
413.311	725.569
412.212	764.122
411.113	750.366
410.013	729.794
408.913	695.588
407.813	681.848
406.713	734.014
405.613	752.083
404.512	706.535
403.412	738.231
402.311	740.393
401.21	753.908
400.109	715.198
399.008	749.144
397.906	744.494
396.805	760.27
395.703	737.466
394.601	741.894
393.499	764.469
392.397	703.116
391.294	743.832
390.192	739.187
389.089	807.091
387.986	716.3
386.883	736.592
385.78	777.272
384.677	756.765
383.573	729.468
382.469	761.071
381.366	785.871
380.261	767.639
379.157	783.373
378.053	749.301
376.948	814.829
375.844	789.814
374.739	785.172
373.634	730.757
372.529	798.511
371.423	802.916
370.318	728.171
369.212	841.116
368.106	750.562
367	768.534
365.894	768.42
364.788	842.877
363.681	784.008
362.575	801.964
361.468	874.124
360.361	840.118
359.254	817.413
358.146	907.6
357.039	812.656
355.931	819.306
354.823	834.982
353.715	866.447
352.607	866.318
351.499	832.354
350.391	897.636
349.282	868.188
348.173	847.767
347.064	901.745
345.955	876.817
344.846	901.478
343.736	946.411
342.627	865.162
341.517	860.528
340.407	885.176
339.297	887.297
338.187	925.443
337.076	956.825
335.965	990.448
334.855	938.535
333.744	922.643
332.633	895.506
331.521	917.87
330.41	890.741
329.298	962.578
328.187	957.937
327.075	948.801
325.963	957.653
324.85	1000.22
323.738	1031.53
322.625	1002.17
321.513	970.564
320.4	1019.84
319.287	1030.92
318.173	1059.96
317.06	974.477
315.946	1021.48
314.833	1012.35
313.719	1061.57
312.605	1079.37
311.49	1061.26
310.376	1061.1
309.261	1134.96
308.147	1186.37
307.032	1240.01
305.917	1275.7
304.801	1318.1
303.686	1331.35
302.57	1393.9
301.455	1299.59
300.339	1294.91
299.223	1285.76
