3199.11	1368.39
3198.4	1283.31
3197.7	1339.85
3196.99	1332.58
3196.29	1300.51
3195.58	1332.22
3194.88	1314.32
3194.17	1278.72
3193.46	1289.17
3192.76	1296.08
3192.05	1302.98
3191.35	1270.94
3190.64	1338.02
3189.93	1337.84
3189.23	1327.04
3188.52	1266.71
3187.81	1227.62
3187.11	1333.57
3186.4	1255.58
3185.69	1273.09
3184.99	1329.49
3184.28	1247.99
3183.57	1293.78
3182.86	1321.88
3182.16	1342.9
3181.45	1293.25
3180.74	1293.07
3180.03	1349.41
3179.33	1200.89
3178.62	1296.07
3177.91	1334.74
3177.2	1320.43
3176.49	1355.55
3175.79	1295.37
3175.08	1266.96
3174.37	1319.71
3173.66	1210.16
3172.95	1238.22
3172.24	1230.99
3171.53	1273.14
3170.82	1255.34
3170.12	1262.22
3169.41	1350.18
3168.7	1240.73
3167.99	1314.57
3167.28	1310.86
3166.57	1226.12
3165.86	1317.55
3165.15	1264.54
3164.44	1253.8
3163.73	1285.32
3163.02	1323.87
3162.31	1267.36
3161.6	1330.55
3160.89	1326.85
3160.18	1266.85
3159.47	1315.93
3158.76	1305.2
3158.05	1280.4
3157.34	1245.05
3156.63	1364.45
3155.91	1315.03
3155.2	1251.57
3154.49	1311.16
3153.78	1275.83
3153.07	1321.34
3152.36	1250.89
3151.65	1342.06
3150.93	1289.19
3150.22	1232.81
3149.51	1229.13
3148.8	1316.75
3148.09	1302.53
3147.37	1284.8
3146.66	1281.11
3145.95	1238.82
3145.24	1263.22
3144.52	1224.45
3143.81	1287.43
3143.1	1280.24
3142.39	1343.19
3141.67	1276.38
3140.96	1174.53
3140.25	1230.46
3139.53	1244.31
3138.82	1342.27
3138.11	1310.55
3137.39	1271.83
3136.68	1299.68
3135.97	1285.49
3135.25	1264.3
3134.54	1180.09
3133.82	1270.96
3133.11	1249.78
3132.4	1298.62
3131.68	1284.44
3130.97	1270.27
3130.25	1333.07
3129.54	1381.87
3128.82	1196.29
3128.11	1325.53
3127.39	1283.39
3126.68	1283.21
3125.96	1269.05
3125.25	1272.37
3124.53	1195.31
3123.82	1317.46
3123.1	1219.44
3122.39	1240.24
3121.67	1309.93
3120.96	1215.45
3120.24	1253.7
3119.52	1330.34
3118.81	1396.5
3118.09	1228.75
3117.38	1294.9
3116.66	1291.23
3115.94	1249.18
3115.23	1266.45
3114.51	1322.09
3113.79	1262.62
3113.08	1318.25
3112.36	1206.48
3111.64	1307.43
3110.92	1307.25
3110.21	1261.76
3109.49	1331.29
3108.77	1338.07
3108.05	1212.46
3107.34	1341.19
3106.62	1260.89
3105.9	1326.89
3105.18	1319.75
3104.47	1323.05
3103.75	1382.05
3103.03	1200.86
3102.31	1280.74
3101.59	1252.73
3100.87	1290.83
3100.16	1255.87
3099.44	1269.61
3098.72	1321.6
3098	1335.33
3097.28	1324.72
3096.56	1359.3
3095.84	1303.5
3095.12	1299.85
3094.4	1337.89
3093.68	1306.44
3092.96	1202.04
3092.24	1201.87
3091.52	1316.32
3090.8	1343.93
3090.08	1270.83
3089.36	1180.39
3088.64	1329.49
3087.92	1218.24
3087.2	1266.66
3086.48	1294.25
3085.76	1370.39
3085.04	1283.49
3084.32	1269.44
3083.6	1199.9
3082.88	1303.76
3082.16	1324.39
3081.44	1275.67
3080.71	1233.91
3079.99	1341.17
3079.27	1313.27
3078.55	1337.34
3077.83	1347.55
3077.11	1198.43
3076.39	1284.84
3075.66	1301.98
3074.94	1308.73
3074.22	1332.78
3073.5	1367.21
3072.77	1266.66
3072.05	1308.01
3071.33	1321.67
3070.61	1373.38
3069.88	1335.15
3069.16	1251.96
3068.44	1352.07
3067.71	1300.02
3066.99	1275.65
3066.27	1354.97
3065.55	1372.07
3064.82	1358.06
3064.1	1285.32
3063.37	1340.41
3062.65	1305.69
3061.93	1305.51
3061.2	1374.4
3060.48	1280.98
3059.75	1287.71
3059.03	1304.8
3058.31	1242.49
3057.58	1294.09
3056.86	1228.35
3056.13	1321.33
3055.41	1262.51
3054.68	1320.97
3053.96	1248.37
3053.23	1210.27
3052.51	1227.34
3051.78	1240.96
3051.06	1357.98
3050.33	1319.89
3049.61	1347.27
3048.88	1312.64
3048.15	1364.13
3047.43	1305.39
3046.7	1339.65
3045.98	1294.7
3045.25	1353.05
3044.52	1315
3043.8	1345.8
3043.07	1318.08
3042.35	1311.02
3041.62	1410.62
3040.89	1283.14
3040.17	1317.36
3039.44	1286.23
3038.71	1361.7
3037.98	1254.93
3037.26	1354.46
3036.53	1330.21
3035.8	1230.36
3035.07	1226.76
3034.35	1274.69
3033.62	1315.74
3032.89	1332.73
3032.16	1270.73
3031.44	1397.61
3030.71	1294.42
3029.98	1297.67
3029.25	1335.26
3028.52	1300.75
3027.79	1286.85
3027.07	1345
3026.34	1368.83
3025.61	1300.04
3024.88	1227.84
3024.15	1316.83
3023.42	1227.5
3022.69	1347.32
3021.96	1340.28
3021.23	1374.38
3020.5	1267.95
3019.77	1295.19
3019.04	1295.01
3018.31	1222.9
3017.58	1363.16
3016.85	1356.12
3016.12	1359.36
3015.39	1328.36
3014.66	1324.76
3013.93	1345.11
3013.2	1249.11
3012.47	1248.94
3011.74	1406.14
3011.01	1306.75
3010.28	1313.41
3009.55	1282.45
3008.82	1412.21
3008.09	1353.9
3007.35	1319.53
3006.62	1370.62
3005.89	1288.41
3005.16	1329.24
3004.43	1298.31
3003.7	1383.53
3002.96	1297.95
3002.23	1349
3001.5	1294.18
3000.77	1348.63
3000.04	1307.48
2999.3	1351.68
2998.57	1276.41
2997.84	1306.94
2997.11	1337.47
2996.37	1316.82
2995.64	1354.16
2994.91	1278.94
2994.17	1323.1
2993.44	1316.1
2992.71	1275.01
2991.97	1315.74
2991.24	1370.09
2990.51	1383.53
2989.77	1403.79
2989.04	1369.53
2988.3	1291
2987.57	1277.19
2986.84	1362.15
2986.1	1341.54
2985.37	1317.52
2984.63	1293.52
2983.9	1262.71
2983.16	1286.36
2982.43	1340.62
2981.7	1326.83
2980.96	1343.65
2980.23	1346.87
2979.49	1275.27
2978.75	1241.1
2978.02	1353.12
2977.28	1261.15
2976.55	1352.75
2975.81	1393.34
2975.08	1328.59
2974.34	1342
2973.61	1318.04
2972.87	1433.34
2972.13	1334.66
2971.4	1263.17
2970.66	1313.92
2969.92	1391.82
2969.19	1388.23
2968.45	1374.47
2967.71	1326.77
2966.98	1319.81
2966.24	1329.8
2965.5	1387.28
2964.77	1366.74
2964.03	1420.81
2963.29	1498.6
2962.55	1308.55
2961.82	1410.06
2961.08	1389.53
2960.34	1430
2959.6	1375.6
2958.87	1392.35
2958.13	1388.77
2957.39	1327.62
2956.65	1307.12
2955.91	1361.11
2955.17	1327.07
2954.44	1347.2
2953.7	1319.94
2952.96	1312.99
2952.22	1370.33
2951.48	1383.68
2950.74	1238.03
2950	1325.8
2949.26	1281.66
2948.52	1433.64
2947.78	1399.63
2947.04	1409.58
2946.3	1335.03
2945.56	1483.54
2944.82	1331.29
2944.08	1415.57
2943.34	1344.43
2942.6	1371.27
2941.86	1384.59
2941.12	1350.63
2940.38	1363.95
2939.64	1353.64
2938.9	1363.58
2938.16	1336.4
2937.42	1349.71
2936.68	1417
2935.94	1318.98
2935.2	1396.37
2934.46	1362.46
2933.71	1372.39
2932.97	1385.69
2932.23	1311.33
2931.49	1422.38
2930.75	1391.86
2930.01	1364.71
2929.26	1425.17
2928.52	1424.97
2927.78	1394.46
2927.04	1438.05
2926.29	1394.08
2925.55	1350.12
2924.81	1353.3
2924.07	1302.63
2923.32	1386.58
2922.58	1366.2
2921.84	1369.38
2921.09	1322.1
2920.35	1372.37
2919.61	1419.27
2918.86	1311.46
2918.12	1378.53
2917.38	1418.68
2916.63	1435.29
2915.89	1297.3
2915.15	1360.97
2914.4	1370.87
2913.66	1374.04
2912.91	1286.51
2912.17	1424.04
2911.42	1386.9
2910.68	1373.28
2909.94	1376.45
2909.19	1325.91
2908.45	1305.59
2907.7	1409.44
2906.96	1382.41
2906.21	1264.8
2905.47	1361.9
2904.72	1324.82
2903.97	1431.95
2903.23	1398.23
2902.48	1401.39
2901.74	1350.91
2900.99	1313.86
2900.25	1427.62
2899.5	1377.16
2898.75	1363.57
2898.01	1390.18
2897.26	1326.36
2896.51	1359.66
2895.77	1433.14
2895.02	1372.68
2894.27	1345.71
2893.53	1325.45
2892.78	1352.04
2892.03	1311.7
2891.29	1351.67
2890.54	1311.34
2889.79	1324.54
2889.04	1257.47
2888.3	1354.27
2887.55	1374.14
2886.8	1343.87
2886.05	1373.77
2885.3	1323.45
2884.56	1276.48
2883.81	1443.37
2883.06	1366.33
2882.31	1396.21
2881.56	1396.02
2880.81	1312.34
2880.06	1372.26
2879.32	1375.41
2878.57	1321.82
2877.82	10733.3
2877.07	14963.1
2876.32	10256.5
2875.57	2061.7
2874.82	1377.61
2874.07	1350.74
2873.32	1347.22
2872.57	1320.37
2871.82	1423.53
2871.07	1326.67
2870.32	1383.15
2869.57	1322.97
2868.82	1399.43
2868.07	1319.28
2867.32	1422.36
2866.57	1412.17
2865.82	1392
2865.07	1378.49
2864.32	1308.39
2863.57	1418.06
2862.81	1371.26
2862.06	1351.11
2861.31	1357.58
2860.56	1400.64
2859.81	1410.43
2859.06	1406.91
2858.31	1423.35
2857.55	1336.7
2856.8	1412.98
2856.05	1359.6
2855.3	1366.06
2854.55	1372.52
2853.79	1392.27
2853.04	1412.01
2852.29	1302.19
2851.54	1355.16
2850.78	1261.98
2850.03	1394.63
2849.28	1401.08
2848.52	1337.82
2847.77	1370.82
2847.02	1413.78
2846.26	1280.86
2845.51	1363.62
2844.76	1396.61
2844	1230.57
2843.25	1329.9
2842.5	1392.72
2841.74	1385.9
2840.99	1412.23
2840.23	1372.26
2839.48	1458.24
2838.72	1298.98
2837.97	1259.04
2837.21	1288.69
2836.46	1384.57
2835.71	1281.71
2834.95	1304.71
2834.2	1443.59
2833.44	1423.53
2832.68	1469.68
2831.93	1343.71
2831.17	1426.26
2830.42	1435.99
2829.66	1442.41
2828.91	1349.59
2828.15	1402.32
2827.4	1309.54
2826.64	1415.16
2825.88	1411.66
2825.13	1398.25
2824.37	1441.02
2823.61	1364.82
2822.86	1361.32
2822.1	1328.1
2821.34	1288.28
2820.59	1301.31
2819.83	1363.88
2819.07	1380.2
2818.32	1287.57
2817.56	1459.05
2816.8	1346.63
2816.04	1336.54
2815.29	1369.35
2814.53	1412.06
2813.77	1266.72
2813.01	1296.23
2812.25	1345.52
2811.5	1332.14
2810.74	1331.96
2809.98	1374.63
2809.22	1357.96
2808.46	1331.41
2807.7	1364.18
2806.94	1390.35
2806.19	1307.8
2805.43	1360.32
2804.67	1386.48
2803.91	1379.71
2803.15	1409.15
2802.39	1405.66
2801.63	1280.39
2800.87	1362.49
2800.11	1326.11
2799.35	1414.76
2798.59	1352.06
2797.83	1299.25
2797.07	1378
2796.31	1387.68
2795.55	1390.77
2794.79	1387.3
2794.03	1377.24
2793.27	1373.77
2792.51	1393.3
2791.75	1366.82
2790.99	1504.61
2790.22	1350.02
2789.46	1359.69
2788.7	1359.5
2787.94	1398.71
2787.18	1359.13
2786.42	1339.25
2785.66	1414.55
2784.89	1352
2784.13	1345.26
2783.37	1381.16
2782.61	1364.57
2781.84	1446.37
2781.08	1334.68
2780.32	1291.87
2779.56	1357.26
2778.79	1370.19
2778.03	1327.39
2777.27	1418.96
2776.51	1392.56
2775.74	1461.16
2774.98	1346.31
2774.22	1398.53
2773.45	1395.07
2772.69	1450.54
2771.93	1411.05
2771.16	1430.5
2770.4	1341.93
2769.63	1331.93
2768.87	1361.19
2768.11	1341.38
2767.34	1478.58
2766.58	1452.21
2765.81	1425.85
2765.05	1491.05
2764.28	1412.38
2763.52	1366.42
2762.75	1438.14
2761.99	1421.6
2761.22	1434.48
2760.46	1313.4
2759.69	1440.62
2758.93	1378.36
2758.16	1387.97
2757.4	1485.74
2756.63	1518.18
2755.87	1521.24
2755.1	1367.62
2754.33	1442.5
2753.57	1458.61
2752.8	1491.04
2752.04	1500.62
2751.27	1461.27
2750.5	1539.34
2749.74	1529.35
2748.97	1587.83
2748.2	1470.25
2747.43	1505.9
2746.67	1450.29
2745.9	1525.04
2745.13	1547.64
2744.37	1550.68
2743.6	1475.55
2742.83	1504.66
2742.06	1546.79
2741.3	1553.09
2740.53	1552.87
2739.76	1510.34
2738.99	1480.84
2738.22	1509.93
2737.45	1600.82
2736.69	1555.06
2735.92	1476.78
2735.15	1603.41
2734.38	1577.18
2733.61	1573.71
2732.84	1638.51
2732.07	1648.04
2731.3	1618.56
2730.53	1673.58
2729.77	1673.35
2729	1663.38
2728.23	1581.94
2727.46	1636.94
2726.69	1643.21
2725.92	1623.5
2725.15	1590.81
2724.38	1662
2723.61	1674.76
2722.84	1716.72
2722.07	1700.26
2721.29	1612.43
2720.52	1722.49
2719.75	1686.58
2718.98	1608.52
2718.21	1767.18
2717.44	1728.03
2716.67	1666.2
2715.9	1789.14
2715.13	1733.8
2714.35	1795.13
2713.58	1794.88
2712.81	1684.49
2712.04	1784.67
2711.27	1797.38
2710.5	1722.65
2709.72	1796.88
2708.95	1761.03
2708.18	1754.31
2707.41	1737.89
2706.63	1734.41
2705.86	1727.7
2705.09	1688.64
2704.32	1749.87
2703.54	1730.22
2702.77	1704.12
2702	1771.78
2701.22	1803.86
2700.45	1755.13
2699.68	1709.64
2698.9	1783.73
2698.13	1754.4
2697.35	1747.7
2696.58	1776.53
2695.81	1737.53
2695.03	1830.94
2694.26	1720.91
2693.48	1791.69
2692.71	1859.23
2691.93	1723.43
2691.16	1755.46
2690.38	1768.12
2689.61	1838.85
2688.83	1706.35
2688.06	1706.11
2687.28	1747.8
2686.51	1866.86
2685.73	1660.28
2684.96	1779.31
2684.18	1733.95
2683.41	1701.48
2682.63	1701.25
2681.85	1752.56
2681.08	1787.75
2680.3	1703.77
2679.53	1690.65
2678.75	1809.55
2677.97	1757.79
2677.2	1767.21
2676.42	1731.56
2675.64	1757.06
2674.87	1583.07
2674.09	1724.41
2673.31	1692
2672.53	1621.01
2671.76	1730.13
2670.98	1697.74
2670.2	1594.62
2669.42	1674.77
2668.65	1690.61
2667.87	1610.03
2667.09	1658.01
2666.31	1635.29
2665.53	1635.07
2664.75	1586.66
2663.98	1679.57
2663.2	1640.81
2662.42	1669.48
2661.64	1685.3
2660.86	1556.68
2660.08	1617.44
2659.3	1591.55
2658.52	1610.58
2657.74	1533.37
2656.97	1622.97
2656.19	1587.47
2655.41	1532.74
2654.63	1506.88
2653.85	1500.26
2653.07	1580.18
2652.29	1525.48
2651.51	1550.91
2650.73	1537.88
2649.95	1595.33
2649.17	1563.08
2648.38	1505.21
2647.6	1492.2
2646.82	1552.83
2646.04	1514.2
2645.26	1565.2
2644.48	1478.57
2643.7	1529.57
2642.92	1545.36
2642.14	1541.94
2641.35	1509.75
2640.57	1525.53
2639.79	1522.12
2639.01	1537.9
2638.23	1387.43
2637.44	1495.92
2636.66	1530.87
2635.88	1479.53
2635.1	1549.62
2634.31	1514.26
2633.53	1466.14
2632.75	1481.91
2631.97	1465.74
2631.18	1449.57
2630.4	1458.95
2629.62	1519.39
2628.83	1512.8
2628.05	1439.2
2627.27	1429.43
2626.48	1547.27
2625.7	1515.16
2624.92	1467.11
2624.13	1438.21
2623.35	1498.59
2622.56	1472.88
2621.78	1402.55
2620.99	1383.23
2620.21	1446.77
2619.43	1395.59
2618.64	1557.88
2617.86	1388.84
2617.07	1420.5
2616.29	1331.13
2615.5	1442.39
2614.72	1321.22
2613.93	1397.43
2613.14	1400.42
2612.36	1457.51
2611.57	1419.13
2610.79	1441.2
2610	1498.26
2609.22	1377.19
2608.43	1497.85
2607.64	1392.71
2606.86	1376.62
2606.07	1430.47
2605.28	1439.81
2604.5	1509.52
2603.71	1439.41
2602.92	1445.57
2602.14	1458.07
2601.35	1394.35
2600.56	1467.2
2599.78	1470.17
2598.99	1441.4
2598.2	1368.18
2597.41	1466.39
2596.62	1374.15
2595.84	1440.6
2595.05	1392.81
2594.26	1421.17
2593.47	1468.55
2592.68	1509.57
2591.9	1388.87
2591.11	1483.79
2590.32	1401.17
2589.53	1366.11
2588.74	1426.13
2587.95	1349.89
2587.16	1435.25
2586.37	1444.55
2585.58	1393.67
2584.8	1409.32
2584.01	1399.62
2583.22	1399.43
2582.43	1373.91
2581.64	1414.87
2580.85	1436.83
2580.06	1367.01
2579.27	1404.79
2578.48	1300.2
2577.69	1423.38
2576.9	1321.98
2576.1	1372.39
2575.31	1467.06
2574.52	1375.18
2573.73	1419.24
2572.94	1381.12
2572.15	1333.53
2571.36	1374.42
2570.57	1333.16
2569.78	1443.53
2568.98	1386.48
2568.19	1354.71
2567.4	1442.93
2566.61	1370.12
2565.82	1322.58
2565.03	1325.56
2564.23	1369.55
2563.44	1397.76
2562.65	1419.65
2561.86	1432.07
2561.06	1394.03
2560.27	1355.99
2559.48	1466.16
2558.68	1406.06
2557.89	1364.89
2557.1	1339.49
2556.3	1326.7
2555.51	1424.19
2554.72	1379.89
2553.92	1351.35
2553.13	1363.76
2552.34	1291.14
2551.54	1265.77
2550.75	1378.93
2549.95	1435.4
2549.16	1343.93
2548.37	1416.13
2547.57	1441.1
2546.78	1368.54
2545.98	1346.34
2545.19	1327.28
2544.39	1295.65
2543.6	1377.22
2542.8	1377.03
2542.01	1301.4
2541.21	1408.08
2540.42	1389.03
2539.62	1426.54
2538.82	1416.92
2538.03	1445
2537.23	1394.54
2536.44	1293.86
2535.64	1312.52
2534.84	1406.52
2534.05	1374.94
2533.25	1327.67
2532.45	1368.28
2531.66	1327.3
2530.86	1330.26
2530.06	1373.99
2529.27	1345.57
2528.47	1361.07
2527.67	1367.15
2526.87	1379.5
2526.08	1310.34
2525.28	1307.03
2524.48	1338.19
2523.68	1438.27
2522.89	1391.08
2522.09	1441.01
2521.29	1396.96
2520.49	1296.55
2519.69	1449.81
2518.89	1318.11
2518.1	1371.14
2517.3	1449.2
2516.5	1308.17
2515.7	1405
2514.9	1295.3
2514.1	1360.81
2513.3	1395.03
2512.5	1351.05
2511.7	1291.45
2510.9	1344.43
2510.1	1331.74
2509.3	1334.68
2508.5	1337.62
2507.7	1349.93
2506.9	1393.49
2506.1	1337.06
2505.3	1405.6
2504.5	1355.43
2503.7	1417.7
2502.9	1358.18
2502.1	1320.53
2501.3	1335.95
2500.5	1385.7
2499.7	1426.08
2498.9	1297.96
2498.09	1328.98
2497.29	1428.61
2496.49	1328.61
2495.69	1337.78
2494.89	1325.12
2494.09	1374.82
2493.28	1362.16
2492.48	1380.67
2491.68	1330.62
2490.88	1380.29
2490.08	1355.18
2489.27	1448.44
2488.47	1376.6
2487.67	1345.27
2486.86	1404.24
2486.06	1354.24
2485.26	1403.86
2484.45	1400.55
2483.65	1397.24
2482.85	1331.71
2482.04	1409.3
2481.24	1297.12
2480.44	1356.04
2479.63	1312.31
2478.83	1402.3
2478.02	1411.44
2477.22	1361.5
2476.42	1348.88
2475.61	1376.67
2474.81	1413.76
2474	1345.22
2473.2	1366.78
2472.39	1400.75
2471.59	1459.56
2470.78	1412.78
2469.98	1341.18
2469.17	1406.18
2468.37	1356.33
2467.56	1412
2466.75	1383.88
2465.95	1377.48
2465.14	1383.5
2464.34	1411.22
2463.53	1283.88
2462.72	1389.12
2461.92	1354.83
2461.11	1404.24
2460.31	1376.15
2459.5	1360.46
2458.69	1366.47
2457.88	1400.36
2457.08	1375.39
2456.27	1465.02
2455.46	1430.75
2454.66	1346.95
2453.85	1371.53
2453.04	1368.24
2452.23	1290.68
2451.43	1321.44
2450.62	1355.3
2449.81	1407.71
2449	1317.8
2448.19	1376.39
2447.38	1394.75
2446.58	1425.48
2445.77	1431.47
2444.96	1400.36
2444.15	1353.8
2443.34	1322.71
2442.53	1427.58
2441.72	1300.71
2440.91	1377.76
2440.1	1278.73
2439.29	1368.12
2438.48	1290.73
2437.68	1383.17
2436.87	1413.85
2436.06	1429.09
2435.25	1364.08
2434.44	1397.84
2433.62	1283.49
2432.81	1341.92
2432	1320.14
2431.19	1360.05
2430.38	1316.69
2429.57	1285.68
2428.76	1356.41
2427.95	1337.72
2427.14	1454.65
2426.33	1383.57
2425.52	1318.68
2424.7	1340.06
2423.89	1401.48
2423.08	1271.94
2422.27	1357.98
2421.46	1407.06
2420.64	1339.13
2419.83	1289.7
2419.02	1323.38
2418.21	1372.43
2417.4	1353.78
2416.58	1356.66
2415.77	1248.82
2414.96	1380.89
2414.14	1432.98
2413.33	1315.94
2412.52	1291.17
2411.7	1337.09
2410.89	1373.79
2410.08	1355.16
2409.26	1272.02
2408.45	1416.23
2407.64	1391.46
2406.82	1366.69
2406.01	1384.93
2405.19	1320.26
2404.38	1350.78
2403.56	1332.17
2402.75	1289.02
2401.94	1337.94
2401.12	1304
2400.31	1291.55
2399.49	1325.11
2398.68	1355.6
2397.86	1275.68
2397.05	1336.83
2396.23	1269.2
2395.41	1305.8
2394.6	1268.85
2393.78	1363.67
2392.97	1311.39
2392.15	1354.1
2391.33	1353.91
2390.52	1353.72
2389.7	1356.6
2388.89	1310.48
2388.07	1389.9
2387.25	1352.97
2386.44	1371.15
2385.62	1343.42
2384.8	1340.17
2383.98	1352.22
2383.17	1355.09
2382.35	1287.62
2381.53	1345.54
2380.71	1265.86
2379.9	1339.05
2379.08	1335.81
2378.26	1234.77
2377.44	1338.5
2376.62	1347.48
2375.81	1353.4
2374.99	1182.15
2374.17	1404.95
2373.35	1276.49
2372.53	1297.69
2371.71	1282.24
2370.89	1343.12
2370.07	1324.62
2369.26	1351.9
2368.44	1327.3
2367.62	1400.34
2366.8	1403.19
2365.98	1329.8
2365.16	1335.71
2364.34	1277.59
2363.52	1362.78
2362.7	1319.92
2361.88	1301.45
2361.06	1325.64
2360.24	1377.26
2359.42	1352.7
2358.6	1294.63
2357.77	1324.91
2356.95	1333.86
2356.13	1327.59
2355.31	1312.18
2354.49	1339.39
2353.67	1260.07
2352.85	1366.41
2352.03	1256.68
2351.2	1472.52
2350.38	1241.12
2349.56	1350.44
2348.74	1277.27
2347.92	1304.46
2347.09	1337.72
2346.27	1291.94
2345.45	1349.51
2344.63	1331.09
2343.8	1336.98
2342.98	1345.91
2342.16	1263.7
2341.33	1327.31
2340.51	1287.65
2339.69	1354.27
2338.86	1329.79
2338.04	1296.22
2337.22	1308.18
2336.39	1301.93
2335.57	1335.12
2334.75	1310.67
2333.92	1328.69
2333.1	1301.2
2332.27	1413.23
2331.45	1482.78
2330.62	1518.95
2329.8	1452.05
2328.97	1348.8
2328.15	1324.36
2327.32	1324.18
2326.5	1351.26
2325.67	1326.84
2324.85	1344.83
2324.02	1302.24
2323.2	1417.13
2322.37	1332.16
2321.55	1319.86
2320.72	1313.63
2319.89	1231.73
2319.07	1313.26
2318.24	1367.54
2317.41	1328.02
2316.59	1361.11
2315.76	1249.02
2314.93	1387.95
2314.11	1321.24
2313.28	1299.89
2312.45	1339.01
2311.63	1269.31
2310.8	1305.4
2309.97	1320.32
2309.14	1371.49
2308.32	1274.65
2307.49	1322.79
2306.66	1376.96
2305.83	1346.58
2305	1373.56
2304.18	1282.82
2303.35	1249.44
2302.52	1294.53
2301.69	1372.8
2300.86	1414.84
2300.03	1284.94
2299.2	1308.89
2298.38	1390.12
2297.55	1326.62
2296.72	1287.24
2295.89	1265.96
2295.06	1259.76
2294.23	1365.05
2293.4	1262.42
2292.57	1349.61
2291.74	1295.2
2290.91	1316.11
2290.08	1294.84
2289.25	1363.91
2288.42	1312.55
2287.59	1345.47
2286.76	1309.17
2285.93	1305.98
2285.09	1278.72
2284.26	1314.64
2283.43	1368.6
2282.6	1329.31
2281.77	1244.93
2280.94	1292.86
2280.11	1346.8
2279.28	1298.52
2278.44	1328.39
2277.61	1367.27
2276.78	1334.03
2275.95	1357.88
2275.11	1327.65
2274.28	1273.41
2273.45	1348.3
2272.62	1348.11
2271.78	1344.93
2270.95	1380.76
2270.12	1365.56
2269.29	1305.35
2268.45	1401.18
2267.62	1268.99
2266.79	1286.81
2265.95	1322.62
2265.12	1319.44
2264.28	1265.29
2263.45	1301.08
2262.62	1282.92
2261.78	1267.75
2260.95	1327.51
2260.11	1342.31
2259.28	1396.05
2258.44	1383.87
2257.61	1443.58
2256.77	1299.64
2255.94	1278.5
2255.1	1356.16
2254.27	1329.03
2253.43	1403.66
2252.6	1283.77
2251.76	1358.39
2250.93	1340.25
2250.09	1283.23
2249.26	1354.83
2248.42	1342.68
2247.58	1351.47
2246.75	1333.34
2245.91	1351.09
2245.07	1288.14
2244.24	1335.77
2243.4	1332.6
2242.56	1323.45
2241.73	1314.31
2240.89	1299.19
2240.05	1334.84
2239.22	1337.64
2238.38	1391.2
2237.54	1268.62
2236.7	1343.05
2235.87	1292.14
2235.03	1330.75
2234.19	1378.29
2233.35	1333.36
2232.51	1288.43
2231.68	1365.79
2230.84	1353.67
2230	1401.18
2229.16	1314.54
2228.32	1317.34
2227.48	1379.74
2226.64	1337.83
2225.8	1367.44
2224.96	1286.82
2224.12	1262.81
2223.29	1343.04
2222.45	1286.28
2221.61	1333.74
2220.77	1378.2
2219.93	1303.6
2219.09	1348.06
2218.25	1234.8
2217.41	1314.96
2216.57	1323.7
2215.72	1323.51
2214.88	1341.17
2214.04	1352.88
2213.2	1272.42
2212.36	1331.69
2211.52	1322.59
2210.68	1337.27
2209.84	1277.65
2209	1218.06
2208.15	1309.97
2207.31	1357.31
2206.47	1327.43
2205.63	1351
2204.79	1380.5
2203.94	1341.71
2203.1	1282.17
2202.26	1287.92
2201.42	1376.76
2200.57	1302.4
2199.73	1290.35
2198.89	1266.44
2198.05	1358.2
2197.2	1322.43
2196.36	1393.4
2195.52	1408.02
2194.67	1312.98
2193.83	1295.02
2192.98	1389.66
2192.14	1350.95
2191.3	1238.2
2190.45	1291.34
2189.61	1273.39
2188.76	1228.8
2187.92	1344.09
2187.08	1314.3
2186.23	1305.23
2185.39	1284.34
2184.54	1316.71
2183.7	1313.56
2182.85	1286.76
2182.01	1393.05
2181.16	1307.1
2180.31	1315.79
2179.47	1383.6
2178.62	1333.16
2177.78	1276.81
2176.93	1344.61
2176.09	1282.37
2175.24	1388.55
2174.39	1296.78
2173.55	1358.62
2172.7	1370.25
2171.85	1319.86
2171.01	1310.82
2170.16	1227.98
2169.31	1283.89
2168.47	1283.71
2167.62	1372.05
2166.77	1283.35
2165.92	1309.72
2165.08	1318.39
2164.23	1288.71
2163.38	1335.71
2162.53	1279.51
2161.68	1317.65
2160.84	1261.47
2159.99	1314.34
2159.14	1355.4
2158.29	1364.05
2157.44	1325.57
2156.59	1269.42
2155.74	1348.76
2154.89	1342.68
2154.05	1366.05
2153.2	1295.21
2152.35	1306.8
2151.5	1341.93
2150.65	1335.86
2149.8	1250.35
2148.95	1367.84
2148.1	1361.77
2147.25	1261.59
2146.4	1320.23
2145.55	1378.84
2144.7	1281.64
2143.85	1260.89
2143	1322.43
2142.14	1286.98
2141.29	1377.88
2140.44	1348.31
2139.59	1315.81
2138.74	1306.82
2137.89	1324.26
2137.04	1365.17
2136.19	1291.6
2135.33	1329.57
2134.48	1344.06
2133.63	1364.41
2132.78	1346.62
2131.93	1372.83
2131.07	1328.64
2130.22	1346.05
2129.37	1316.54
2128.52	1380.86
2127.66	1316.18
2126.81	1418.57
2125.96	1353.9
2125.1	1289.25
2124.25	1376.96
2123.4	1265.46
2122.54	1291.64
2121.69	1309.03
2120.84	1300.06
2119.98	1279.39
2119.13	1358.25
2118.27	1355.13
2117.42	1349.09
2116.56	1334.27
2115.71	1339.93
2114.86	1310.49
2114	1336.63
2113.15	1313.05
2112.29	1353.81
2111.44	1377
2110.58	1254.04
2109.73	1259.71
2108.87	1253.69
2108.01	1297.34
2107.16	1335.14
2106.3	1346.64
2105.45	1331.85
2104.59	1369.63
2103.73	1302.28
2102.88	1278.74
2102.02	1328.18
2101.17	1339.67
2100.31	1319.06
2099.45	1345.13
2098.59	1344.95
2097.74	1274.75
2096.88	1388.32
2096.02	1382.29
2095.17	1332.53
2094.31	1396.48
2093.45	1375.88
2092.59	1302.83
2091.74	1337.61
2090.88	1363.65
2090.02	1348.89
2089.16	1325.4
2088.3	1336.87
2087.44	1330.85
2086.59	1356.87
2085.73	1350.86
2084.87	1298.28
2084.01	1367.95
2083.15	1396.86
2082.29	1364.66
2081.43	1367.37
2080.57	1364.27
2079.71	1381.53
2078.85	1407.51
2077.99	1375.33
2077.13	1282.11
2076.27	1342.97
2075.41	1368.94
2074.55	1342.6
2073.69	1362.75
2072.83	1339.31
2071.97	1350.75
2071.11	1356.37
2070.25	1382.31
2069.39	1341.47
2068.53	1347.09
2067.67	1393.34
2066.8	1329.3
2065.94	1366.84
2065.08	1369.55
2064.22	1328.74
2063.36	1337.26
2062.5	1308.06
2061.63	1362.98
2060.77	1374.39
2059.91	1420.58
2059.05	1304.43
2058.18	1341.93
2057.32	1364.92
2056.46	1356.04
2055.6	1347.16
2054.73	1387.53
2053.87	1338.09
2053.01	1268.41
2052.14	1384.05
2051.28	1418.59
2050.42	1398.13
2049.55	1334.26
2048.69	1345.65
2047.82	1357.04
2046.96	1342.38
2046.1	1345.09
2045.23	1339.11
2044.37	1283.98
2043.5	1312.72
2042.64	1344.33
2041.77	1332.58
2040.91	1312.16
2040.04	1323.54
2039.18	1355.14
2038.31	1337.61
2037.45	1421.2
2036.58	1308.36
2035.72	1348.6
2034.85	1319.54
2033.98	1293.37
2033.12	1382.68
2032.25	1353.62
2031.38	1414.03
2030.52	1298.42
2029.65	1355.94
2028.79	1370.17
2027.92	1387.28
2027.05	1332.3
2026.18	1291.74
2025.32	1369.4
2024.45	1369.21
2023.58	1345.96
2022.72	1403.41
2021.85	1371.52
2020.98	1365.56
2020.11	1330.81
2019.24	1388.22
2018.38	1307.39
2017.51	1295.69
2016.64	1393.4
2015.77	1462.28
2014.9	1349.83
2014.03	1369.79
2013.16	1283.28
2012.3	1389.54
2011.43	1328.94
2010.56	1386.28
2009.69	1328.57
2008.82	1437.64
2007.95	1402.94
2007.08	1371.13
2006.21	1385.31
2005.34	1399.48
2004.47	1324.58
2003.6	1312.9
2002.73	1393.15
2001.86	1364.23
2000.99	1412.86
2000.12	1360.98
1999.25	1372.27
1998.37	1317.54
1997.5	1303
1996.63	1417.61
1995.76	1403.06
1994.89	1368.44
1994.02	1296.54
1993.15	1330.77
1992.27	1316.25
1991.4	1370.54
1990.53	1344.55
1989.66	1387.35
1988.79	1335.57
1987.91	1343.98
1987.04	1346.66
1986.17	1343.6
1985.3	1397.84
1984.42	1397.64
1983.55	1363.08
1982.68	1417.29
1981.8	1359.84
1980.93	1285.22
1980.06	1348.01
1979.18	1339.23
1978.31	1327.6
1977.44	1347.44
1976.56	1375.86
1975.69	1398.54
1974.81	1395.49
1973.94	1318.09
1973.06	1395.1
1972.19	1357.74
1971.31	1374.7
1970.44	1365.93
1969.57	1397.17
1968.69	1345.55
1967.81	1385.35
1966.94	1359.45
1966.06	1387.82
1965.19	1330.52
1964.31	1361.74
1963.44	1364.4
1962.56	1347.08
1961.68	1284.12
1960.81	1412.33
1959.93	1380.75
1959.06	1386.26
1958.18	1374.66
1957.3	1405.83
1956.43	1368.57
1955.55	1405.44
1954.67	1339.68
1953.79	1396.49
1952.92	1322.21
1952.04	1347.67
1951.16	1301.9
1950.28	1367.23
1949.41	1295.83
1948.53	1338.37
1947.65	1304.01
1946.77	1312.37
1945.89	1352.03
1945.02	1374.61
1944.14	1371.57
1943.26	1342.93
1942.38	1405.33
1941.5	1362.46
1940.62	1450.44
1939.74	1379.14
1938.86	1324.93
1937.98	1370.23
1937.1	1293.29
1936.22	1378.37
1935.34	1315.66
1934.46	1335.36
1933.58	1403.35
1932.7	1386.11
1931.82	1340.48
1930.94	1402.76
1930.06	1459.35
1929.18	1379.66
1928.3	1353.92
1927.42	1356.57
1926.54	1404.61
1925.66	1415.77
1924.78	1381.53
1923.9	1352.97
1923.01	1389.65
1922.13	1335.57
1921.25	1298.53
1920.37	1386.22
1919.49	1332.18
1918.61	1394.34
1917.72	1280.8
1916.84	1340.11
1915.96	1362.59
1915.08	1368.06
1914.19	1390.53
1913.31	1362.01
1912.43	1347.67
1911.54	1285.2
1910.66	1321.81
1909.78	1369.74
1908.89	1437.46
1908.01	1386.33
1907.13	1312.58
1906.24	1346.34
1905.36	1354.64
1904.47	1379.89
1903.59	1371.22
1902.71	1348.41
1901.82	1373.66
1900.94	1381.94
1900.05	1370.45
1899.17	1319.4
1898.28	1254.24
1897.4	1327.5
1896.51	1358.38
1895.63	1310.19
1894.74	1405.99
1893.85	1394.5
1892.97	1397.13
1892.08	1382.82
1891.2	1382.63
1890.31	1390.9
1889.42	1368.14
1888.54	1373.58
1887.65	1331.09
1886.77	1359.1
1885.88	1302.52
1884.99	1409.46
1884.1	1381.07
1883.22	1358.33
1882.33	1372.23
1881.44	1436.84
1880.56	1383.11
1879.67	1377.29
1878.78	1444.68
1877.89	1362.82
1877	1399.23
1876.12	1269.54
1875.23	1348.17
1874.34	1288.88
1873.45	1359.05
1872.56	1350.42
1871.67	1316.47
1870.79	1344.41
1869.9	1355.47
1869.01	1394.64
1868.12	1414.13
1867.23	1371.76
1866.34	1399.68
1865.45	1329.22
1864.56	1348.71
1863.67	1345.71
1862.78	1384.84
1861.89	1230.17
1861	1311.44
1860.11	1361.8
1859.22	1367.22
1858.33	1333.34
1857.44	1344.38
1856.55	1383.48
1855.66	1315.94
1854.76	1296.12
1853.87	1363.26
1852.98	1357.46
1852.09	1334.83
1851.2	1345.86
1850.31	1354.08
1849.41	1395.94
1848.52	1334.08
1847.63	1367.52
1846.74	1342.11
1845.85	1389.55
1844.95	1380.95
1844.06	1341.54
1843.17	1372.16
1842.28	1360.77
1841.38	1366.17
1840.49	1323.99
1839.6	1351.79
1838.7	1298.44
1837.81	1376.6
1836.92	1423.96
1836.02	1342.64
1835.13	1345.25
1834.23	1378.62
1833.34	1395.2
1832.45	1372.64
1831.55	1350.08
1830.66	1319.15
1829.76	1402.79
1828.87	1374.66
1827.97	1405.19
1827.08	1377.06
1826.18	1365.7
1825.29	1393.43
1824.39	1348.56
1823.5	1381.87
1822.6	1431.92
1821.7	1359.15
1820.81	1286.41
1819.91	1325.29
1819.02	1333.47
1818.12	1425.33
1817.22	1377.72
1816.33	1316.18
1815.43	1363.39
1814.53	1413.38
1813.64	1371.37
1812.74	1337.73
1811.84	1309.68
1810.94	1390.29
1810.05	1376.16
1809.15	1434.46
1808.25	1292.23
1807.35	1311.54
1806.46	1350.33
1805.56	1347.36
1804.66	1411.18
1803.76	1369.24
1802.86	1385.74
1801.97	1299.3
1801.07	1438.21
1800.17	1323.96
1799.27	1423.9
1798.37	1423.69
1797.47	1387.35
1796.57	1348.24
1795.67	1334.15
1794.77	1353.41
1793.87	1358.78
1792.97	1347.48
1792.07	1377.84
1791.17	1349.87
1790.27	1424.67
1789.37	1371.71
1788.47	1479.79
1787.57	1462.93
1786.67	1365.57
1785.77	1359.83
1784.87	1473.41
1783.97	1406.61
1783.07	1400.87
1782.16	1395.12
1781.26	1411.56
1780.36	1389.18
1779.46	1325.22
1778.56	1419.28
1777.66	1324.85
1776.75	1413.34
1775.85	1327.24
1774.95	1346.45
1774.05	1393.35
1773.14	1407
1772.24	1409.57
1771.34	1392.76
1770.44	1417.48
1769.53	1408.98
1768.63	1389.4
1767.73	1411.34
1766.82	1416.68
1765.92	1352.85
1765.01	1352.66
1764.11	1429.91
1763.21	1404.82
1762.3	1324.43
1761.4	1354.66
1760.49	1379.34
1759.59	1401.26
1758.68	1431.46
1757.78	1370.47
1756.87	1337.13
1755.97	1422.57
1755.06	1361.6
1754.16	1369.7
1753.25	1377.79
1752.35	1460.41
1751.44	1347.03
1750.54	1346.84
1749.63	1412.88
1748.72	1407.16
1747.82	1329.72
1746.91	1337.81
1746.01	1356.92
1745.1	1376.04
1744.19	1367.57
1743.29	1458.35
1742.38	1411.29
1741.47	1391.79
1740.56	1430.18
1739.66	1418.95
1738.75	1366.41
1737.84	1402.03
1736.93	1401.83
1736.03	1338.29
1735.12	1395.92
1734.21	1486.57
1733.3	1392.78
1732.39	1400.84
1731.48	1433.66
1730.58	1441.71
1729.67	1441.51
1728.76	1356.04
1727.85	1391.6
1726.94	1493.14
1726.03	1448.94
1725.12	1437.74
1724.21	1434.79
1723.3	1431.84
1722.39	1401.41
1721.48	1450.66
1720.57	1412
1719.66	1444.76
1718.75	1414.35
1717.84	1491.03
1716.93	1397.47
1716.02	1424.73
1715.11	1391.59
1714.2	1457.26
1713.29	1426.87
1712.38	1423.92
1711.47	1377.09
1710.55	1467.4
1709.64	1368.47
1708.73	1458.76
1707.82	1368.08
1706.91	1499.47
1705.99	1318.36
1705.08	1364.76
1704.17	1446.77
1703.26	1421.91
1702.34	1460.06
1701.43	1429.72
1700.52	1372.01
1699.61	1456.7
1698.69	1516.72
1697.78	1497.35
1696.87	1406.82
1695.95	1343.67
1695.04	1455.67
1694.13	1354.24
1693.21	1425.17
1692.3	1487.87
1691.38	1443.91
1690.47	1451.9
1689.55	1429.83
1688.64	1440.56
1687.72	1454.02
1686.81	1412.82
1685.9	1445.41
1684.98	1434.28
1684.06	1434.08
1683.15	1477.57
1682.23	1458.25
1681.32	1477.15
1680.4	1506.98
1679.49	1397.58
1678.57	1468.34
1677.65	1484.51
1676.74	1511.58
1675.82	1470.44
1674.91	1472.96
1673.99	1486.39
1673.07	1464.37
1672.16	1325.1
1671.24	1499.39
1670.32	1477.37
1669.4	1468.99
1668.49	1474.23
1667.57	1487.64
1666.65	1452.02
1665.73	1468.15
1664.82	1481.56
1663.9	1467.74
1662.98	1470.25
1662.06	1494.55
1661.14	1437.17
1660.22	1510.45
1659.3	1502.07
1658.39	1471.93
1657.47	1531.57
1656.55	1447.04
1655.63	1599.13
1654.71	1522.76
1653.79	1590.52
1652.87	1459.81
1651.95	1500.37
1651.03	1467.55
1650.11	1540.71
1649.19	1524.19
1648.27	1562
1647.35	1556.35
1646.43	1520.82
1645.51	1531.47
1644.59	1563.83
1643.67	1536.46
1642.75	1522.67
1641.82	1579.45
1640.9	1636.21
1639.98	1530.17
1639.06	1567.93
1638.14	1581.27
1637.22	1578.33
1636.29	1567.26
1635.37	1553.48
1634.45	1553.26
1633.53	1669.59
1632.6	1612.44
1631.68	1593.25
1630.76	1544.25
1629.84	1660.51
1628.91	1635.9
1627.99	1616.71
1627.07	1722.08
1626.14	1697.47
1625.22	1721.6
1624.3	1761.95
1623.37	1707.58
1622.45	1758.74
1621.52	1785.55
1620.6	1850.21
1619.68	1730.95
1618.75	1836.17
1617.83	1833.2
1616.9	1811.32
1615.98	1900.26
1615.05	1808.1
1614.13	1805.14
1613.2	1840.01
1612.28	1858.66
1611.35	1855.69
1610.43	1931.05
1609.5	1890.27
1608.57	1873.8
1607.65	1841.14
1606.72	1959.65
1605.79	1913.49
1604.87	1918.62
1603.94	1942.63
1603.02	1947.75
1602.09	1928.59
1601.16	2022.71
1600.23	2011.63
1599.31	1995.17
1598.38	2029.93
1597.45	2026.95
1596.52	2131.77
1595.6	2153.02
1594.67	2131.16
1593.74	2004.25
1592.81	2246.38
1591.88	2235.29
1590.96	2186.5
1590.03	2188.88
1589.1	2309.71
1588.17	2304
1587.24	2298.29
1586.31	2410.98
1585.38	2448.3
1584.45	2402.22
1583.52	2466.43
1582.59	2460.7
1581.66	2498
1580.73	2457.32
1579.8	2567.18
1578.87	2494.25
1577.94	2488.52
1577.01	2415.61
1576.08	2442.14
1575.15	2508.95
1574.22	2444.13
1573.29	2352.48
1572.36	2158.81
1571.43	2282
1570.5	2174.31
1569.57	2259.88
1568.63	2208.58
1567.7	2068.74
1566.77	2175.75
1565.84	2108.38
1564.91	1998.12
1563.97	1989.79
1563.04	1973.42
1562.11	1991.91
1561.18	1943.38
1560.24	1994.02
1559.31	1934.78
1558.38	1864.84
1557.44	1899.41
1556.51	1936.64
1555.58	1901.54
1554.64	1928.05
1553.71	1922.42
1552.78	1930.18
1551.84	1905.82
1550.91	1771.73
1549.97	1894.57
1549.04	1894.3
1548.11	1829.83
1547.17	1826.89
1546.24	1853.38
1545.3	1898.57
1544.37	1818.09
1543.43	1809.81
1542.5	1785.5
1541.56	1761.19
1540.62	1801.03
1539.69	1822.14
1538.75	1821.88
1537.82	1821.62
1536.88	1791.99
1535.94	1837.13
1535.01	1786.14
1534.07	1735.17
1533.14	1849.69
1532.2	1865.44
1531.26	1726.42
1530.32	1744.85
1529.39	1757.94
1528.45	1760.36
1527.51	1765.44
1526.57	1743.86
1525.64	1799.6
1524.7	1772.68
1523.76	1871.05
1522.82	1774.84
1521.88	1841.2
1520.95	1872.91
1520.01	1774.09
1519.07	1744.54
1518.13	1800.21
1517.19	1770.67
1516.25	1751.78
1515.31	1764.84
1514.37	1815.15
1513.43	1790.95
1512.5	1697.56
1511.56	1771.81
1510.62	1731.66
1509.68	1821.84
1508.74	1773.72
1507.8	1885.14
1506.85	1810.43
1505.91	1802.2
1504.97	1839.15
1504.03	1817.63
1503.09	1782.83
1502.15	1795.86
1501.21	1798.26
1500.27	1790.03
1499.33	1877.41
1498.39	1824.04
1497.44	1850.33
1496.5	1836.79
1495.56	1889.61
1494.62	1846.88
1493.68	1817.44
1492.73	1758.82
1491.79	1793.05
1490.85	1758.31
1489.91	1848.22
1488.96	1760.46
1488.02	1860.95
1487.08	1979.96
1486.13	1857.77
1485.19	1831.01
1484.25	1828.09
1483.3	1939.09
1482.36	1843.47
1481.41	1840.55
1480.47	1882.66
1479.53	1911.51
1478.58	1747.12
1477.64	1889.79
1476.69	1934.51
1475.75	1926.3
1474.8	1873.11
1473.86	1923.11
1472.91	1824.97
1471.97	1925.2
1471.02	1906.42
1470.08	1964.31
1469.13	1929.66
1468.18	1865.96
1467.24	1992.54
1466.29	1947.34
1465.35	1846.67
1464.4	1978.48
1463.45	1980.84
1462.51	1917.18
1461.56	1898.42
1460.61	1943.03
1459.66	1937.47
1458.72	1908.17
1457.77	1923.73
1456.82	1960.39
1455.87	1939.01
1454.93	1914.99
1453.98	1967.46
1453.03	1956.64
1452.08	2040.73
1451.13	2045.71
1450.19	2061.23
1449.24	2166.36
1448.29	2050.1
1447.34	2026.1
1446.39	1975.76
1445.44	2107.17
1444.49	2048.93
1443.54	2072.34
1442.59	2014.12
1441.64	2011.2
1440.69	2031.97
1439.74	2089.58
1438.79	2060.34
1437.84	2028.47
1436.89	2120.25
1435.94	2093.65
1434.99	1967.12
1434.04	2169.3
1433.09	2150.59
1432.14	2105.6
1431.19	2089.52
1430.24	2097.11
1429.29	2109.95
1428.33	2083.38
1427.38	2041.05
1426.43	2203.6
1425.48	2035.21
1424.53	2124.2
1423.57	2165.9
1422.62	2123.59
1421.67	2183.65
1420.72	2193.84
1419.76	2156.79
1418.81	2174.85
1417.86	2206.01
1416.9	2195.21
1415.95	2187.03
1415	2218.18
1414.04	2160.19
1413.09	2214.92
1412.14	2243.44
1411.18	2287.66
1410.23	2237.55
1409.27	2252.95
1408.32	2299.78
1407.36	2291.59
1406.41	2304.36
1405.46	2304.03
1404.5	2306.32
1403.54	2298.14
1402.59	2308.28
1401.63	2305.33
1400.68	2354.71
1399.72	2482.56
1398.77	2270.34
1397.81	2426.93
1396.86	2361.21
1395.9	2308.58
1394.94	2412.82
1393.99	2449.06
1393.03	2412.13
1392.07	2534.59
1391.12	2521.17
1390.16	2450.28
1389.2	2434.25
1388.24	2366.01
1387.29	2477.95
1386.33	2451.49
1385.37	2592.1
1384.41	2521.25
1383.46	2588.74
1382.5	2517.92
1381.54	2603.66
1380.58	2738.93
1379.62	2592.48
1378.66	2735.54
1377.71	2656.92
1376.75	2771.25
1375.79	2778.68
1374.83	2744.4
1373.87	2796.12
1372.91	2811.35
1371.95	2818.77
1370.99	2771.48
1370.03	2916.93
1369.07	2911.3
1368.11	2913.49
1367.15	2941.71
1366.19	2923.07
1365.23	3065.79
1364.27	3005.5
1363.31	3234.03
1362.35	3137.31
1361.38	3069.24
1360.42	3165.02
1359.46	3130.77
1358.5	3148.52
1357.54	3278.05
1356.58	3230.79
1355.61	3217.33
1354.65	3351.99
1353.69	3354.11
1352.73	3221.15
1351.77	3316.79
1350.8	3469.53
1349.84	3417.11
1348.88	3481.52
1347.91	3561.49
1346.95	3384.49
1345.99	3516.36
1345.02	3482.12
1344.06	3652.85
1343.1	3647.14
1342.13	3615.5
1341.17	3622.76
1340.2	3764.85
1339.24	3660.61
1338.28	3724.89
1337.31	3763.23
1336.35	3718.64
1335.38	3798.43
1334.42	3696.85
1333.45	3786.98
1332.49	3776.07
1331.52	3679.72
1330.55	3831.95
1329.59	3779.63
1328.62	3929.22
1327.66	3845.84
1326.69	3871.16
1325.72	3919.77
1324.76	3901.09
1323.79	4024.69
1322.83	3775.84
1321.86	3971.82
1320.89	3950.57
1319.92	4037.89
1318.96	4045.07
1317.99	3979.88
1317.02	3976.73
1316.05	4138.92
1315.09	4035
1314.12	4013.76
1313.15	4033.85
1312.18	4172.7
1311.21	4203.08
1310.25	3913.37
1309.28	4163.16
1308.31	4175.47
1307.34	4236.8
1306.37	4078.82
1305.4	4124.66
1304.43	4103.44
1303.46	4252.42
1302.49	4223.45
1301.52	4197.06
1300.55	4108.82
1299.58	4170.09
1298.61	4154.03
1297.64	4117.36
1296.67	4132.22
1295.7	3995.11
1294.73	4138.77
1293.76	4179.37
1292.79	4065.49
1291.82	4129.26
1290.85	4007.69
1289.88	3978.81
1288.9	3949.93
1287.93	4018.83
1286.96	4015.68
1285.99	4061.41
1285.02	3991.39
1284.04	3864.81
1283.07	3923.39
1282.1	3879.13
1281.13	3994.24
1280.15	3834.33
1279.18	3815.79
1278.21	3838.36
1277.23	3781.3
1276.26	3762.78
1275.29	3808.46
1274.31	3723.18
1273.34	3758.59
1272.37	3788.85
1271.39	3575.28
1270.42	3723.61
1269.44	3625.57
1268.47	3555.78
1267.49	3550.14
1266.52	3508.6
1265.55	3541.43
1264.57	3551.18
1263.6	3535.29
1262.62	3516.84
1261.64	3539.4
1260.67	3585.02
1259.69	3535.82
1258.72	3455.89
1257.74	3368.31
1256.77	3285.87
1255.79	3400.63
1254.81	3346.38
1253.84	3289.58
1252.86	3409.4
1251.88	3375.64
1250.91	3260.01
1249.93	3208.37
1248.95	3312.79
1247.97	3284.18
1247	3168.63
1246.02	3226.98
1245.04	3121.7
1244.06	3065.01
1243.08	3243.49
1242.11	3117.8
1241.13	3206.78
1240.15	3053.03
1239.17	3144.55
1238.19	3144.1
1237.21	3074.7
1236.23	3041.06
1235.25	3055.94
1234.27	3024.87
1233.3	2922.35
1232.32	3021.45
1231.34	2985.29
1230.36	3025.68
1229.38	2892.61
1228.4	2902.39
1227.42	2843.32
1226.43	2901.56
1225.45	2829.76
1224.47	2750.34
1223.49	2846.79
1222.51	2762.29
1221.53	2802.65
1220.55	2865.94
1219.57	2847.7
1218.59	2870.21
1217.6	2724.65
1216.62	2787.91
1215.64	2695.86
1214.66	2715.84
1213.68	2804.52
1212.69	2735.41
1211.71	2607.81
1210.73	2668.49
1209.74	2724.06
1208.76	2662.63
1207.78	2636.82
1206.79	2636.44
1205.81	2747.91
1204.83	2640.77
1203.84	2693.76
1202.86	2634.93
1201.88	2642.17
1200.89	2624.01
1199.91	2577.91
1198.92	2590.24
1197.94	2559.4
1196.95	2548.87
1195.97	2695.73
1194.98	2611.59
1194	2458.96
1193.01	2544.87
1192.03	2582.56
1191.04	2549.21
1190.06	2543.77
1189.07	2523.12
1188.08	2441.62
1187.1	2469.16
1186.11	2461.2
1185.13	2438.03
1184.14	2442.75
1183.15	2546.28
1182.17	2462.31
1181.18	2454.36
1180.19	2502.12
1179.2	2478.97
1178.22	2412.79
1177.23	2417.51
1176.24	2407.03
1175.25	2361.13
1174.27	2403.81
1173.28	2413.58
1172.29	2312.05
1171.3	2382.54
1170.31	2384.72
1169.32	2442.54
1168.33	2432.07
1167.35	2363.47
1166.36	2408.62
1165.37	2350.15
1164.38	2380.14
1163.39	2352
1162.4	2445.12
1161.41	2313.44
1160.42	2297.96
1159.43	2287.53
1158.44	2373.03
1157.45	2352.49
1156.46	2291.58
1155.47	2336.68
1154.48	2338.86
1153.48	2406.64
1152.49	2325.58
1151.5	2352.98
1150.51	2284.56
1149.52	2178.34
1148.53	2364.57
1147.54	2167.63
1146.54	2318.53
1145.55	2189.68
1144.56	2310.3
1143.57	2274.7
1142.57	2264.3
1141.58	2324.41
1140.59	2409.68
1139.6	2341.36
1138.6	2257.96
1137.61	2199.74
1136.62	2244.72
1135.62	2209.17
1134.63	2218.92
1133.63	2251.3
1132.64	2228.34
1131.65	2253.16
1130.65	2200.04
1129.66	2270.11
1128.66	2252.19
1127.67	2256.89
1126.67	2213.84
1125.68	2183.37
1124.68	2175.52
1123.69	2150.09
1122.69	2257.77
1121.7	2204.71
1120.7	2299.8
1119.7	2271.86
1118.71	2148.54
1117.71	2228.54
1116.72	2190.58
1115.72	2192.77
1114.72	2230.08
1113.73	2224.74
1112.73	2254.52
1111.73	2136.34
1110.74	2218.77
1109.74	2125.7
1108.74	2173.01
1107.74	2265.42
1106.75	2255.07
1105.75	2232.2
1104.75	2352.11
1103.75	2198.99
1102.75	2203.68
1101.75	2275.98
1100.76	2203.05
1099.76	2227.76
1098.76	2290.01
1097.76	2294.68
1096.76	2236.8
1095.76	2243.99
1094.76	2128.6
1093.76	2225.83
1092.76	2275.52
1091.76	2195.19
1090.76	2252.36
1089.76	2129.56
1088.76	2274.21
1087.76	2198.91
1086.76	2278.55
1085.76	2285.71
1084.76	2267.9
1083.76	2260.08
1082.76	2082.47
1081.75	2204.5
1080.75	2189.2
1079.75	2261.27
1078.75	2173.6
1077.75	2145.84
1076.75	2172.97
1075.74	2220.05
1074.74	2154.88
1073.74	2329.13
1072.74	2211.61
1071.73	2143.98
1070.73	2243.37
1069.73	2173.26
1068.72	2177.93
1067.72	2222.47
1066.72	2212.18
1065.71	2139.63
1064.71	2194.11
1063.71	2139.01
1062.7	2248.25
1061.7	2168.26
1060.69	2225.2
1059.69	2224.87
1058.68	2264.36
1057.68	2216.77
1056.67	2184.11
1055.67	2176.33
1054.66	2225.75
1053.66	2183.16
1052.65	2267.37
1051.65	2147.73
1050.64	2147.42
1049.63	2323.55
1048.63	2179.1
1047.62	2355.17
1046.62	2238.08
1045.61	2205.47
1044.6	2272.2
1043.6	2214.76
1042.59	2283.95
1041.58	2114.83
1040.57	2251.03
1039.57	2196.11
1038.56	2272.71
1037.55	2210.36
1036.54	2279.49
1035.53	2363.48
1034.53	2308.59
1033.52	2333.05
1032.51	2337.67
1031.5	2285.28
1030.49	2393.99
1029.48	2336.65
1028.47	2385.86
1027.47	2390.47
1026.46	2449.57
1025.45	2441.79
1024.44	2446.39
1023.43	2450.98
1022.42	2450.63
1021.41	2413.15
1020.4	2444.97
1019.39	2494.1
1018.38	2446.73
1017.37	2523.06
1016.35	2611.73
1015.34	2566.84
1014.33	2571.42
1013.32	2627.9
1012.31	2639.88
1011.3	2562.88
1010.29	2616.88
1009.27	2574.5
1008.26	2546.95
1007.25	2650.32
1006.24	2728.96
1005.23	2580.41
1004.21	2745.46
1003.2	2727.78
1002.19	2821.18
1001.17	2731.92
1000.16	2862.31
999.148	2800.21
998.134	2891.08
997.121	2949.85
996.107	2942.03
995.093	3057.49
994.079	3153.19
993.065	3231.62
992.051	3300.16
991.036	3499.29
990.021	3575.16
989.007	3754.49
987.992	3739.16
986.977	3982.44
985.961	4053.28
984.946	4161.02
983.931	4160.42
982.915	4231.2
981.899	4348.72
980.883	4244.74
979.867	4226.9
978.851	4268.1
977.834	4181.4
976.818	4328.35
975.801	4187.56
974.784	4245.96
973.767	4299.43
972.75	4316.01
971.733	4249.03
970.715	4280.35
969.698	4085.65
968.68	4232.44
967.662	4118.85
966.644	4250.86
965.626	4181.49
964.608	4244.71
963.589	4285.83
962.571	4206.67
961.552	4169.25
960.533	4151.47
959.514	4138.6
958.495	4030.07
957.475	4139.85
956.456	4117.18
955.436	4096.97
954.416	4204.24
953.396	4071.27
952.376	4210.37
951.356	4116.64
950.336	4145.45
949.315	4147.29
948.294	4053.62
947.273	4229.35
946.252	4057.34
945.231	4117.95
944.21	4154.07
943.189	4180.39
942.167	4140.63
941.145	4164.5
940.123	4286.22
939.101	4111.92
938.079	3974.36
937.057	3949.33
936.034	3682.25
935.012	3532.58
933.989	3424.52
932.966	3318.93
931.943	3240.25
930.92	3078.53
929.896	2887.53
928.873	2848.03
927.849	2764.58
926.825	2632.32
925.801	2448.82
924.777	2431.38
923.753	2543.3
922.729	2379.43
921.704	2391.28
920.679	2429.97
919.655	2349.12
918.63	2343.9
917.604	2345.99
916.579	2357.84
915.554	2333.12
914.528	2340.1
913.502	2403.12
912.476	2332.1
911.45	2309.84
910.424	2321.68
909.398	2343.27
908.371	2240.64
907.345	2259.79
906.318	2317.9
905.291	2300.52
904.264	2339.13
903.237	2341.22
902.209	2267.88
901.182	2340.54
900.154	2223.43
899.126	2337.43
898.098	2247.11
897.07	2280.82
896.042	2219.71
895.013	2304.47
893.985	2253.09
892.956	2136.12
891.927	2366.64
890.898	2324.99
889.869	2254.21
888.84	2312.17
887.81	2292.41
886.78	2277.51
885.751	2245.61
884.721	2225.87
883.691	2230.4
882.66	2217.94
881.63	2251.59
880.599	2277.94
879.569	2287.32
878.538	2265.16
877.507	2243
876.476	2300.86
875.445	2249.62
874.413	2130.53
873.382	2256.24
872.35	2394.02
871.318	2233.77
870.286	2274.63
869.254	2269.45
868.221	2225.53
867.189	2220.37
866.156	2246.67
865.123	2173.73
864.091	2287.17
863.057	2277.15
862.024	2204.23
860.991	2257.14
859.957	2278.58
858.924	2329.03
857.89	2362.55
856.856	2202.63
855.822	2325.6
854.787	2274.5
853.753	2237.92
852.718	2331.83
851.684	2358.07
850.649	2215.2
849.614	2214.88
848.578	2371.53
847.543	2315.64
846.508	2235.64
845.472	2266.69
844.436	2280.84
843.4	2275.68
842.364	2362.22
841.328	2373.93
840.291	2349.47
839.255	2325.01
838.218	2266.79
837.181	2394.25
836.144	2364.97
835.107	2304.37
834.07	2371.51
833.032	2400.08
831.995	2373.23
830.957	2346.39
829.919	2447.21
828.881	2451.67
827.843	2383.89
826.804	2438.91
825.766	2354.3
824.727	2476.71
823.688	2375.28
822.649	2382.15
821.61	2506.91
820.571	2376.64
819.531	2354.65
818.492	2409.62
817.452	2423.69
816.412	2425.74
815.372	2415.77
814.332	2425.03
813.292	2369.41
812.251	2457.96
811.211	2472.02
810.17	2426.02
809.129	2401.65
808.088	2480.54
807.046	2542.61
806.005	2472.62
804.963	2472.26
803.922	2459.9
802.88	2502.73
801.838	2413.59
800.796	2473.21
799.753	2388.9
798.711	2422.13
797.668	2443.36
796.626	2344.7
795.583	2500.17
794.54	2430.3
793.496	2420.36
792.453	2460.74
791.409	2457.99
790.366	2421.7
789.322	2399.79
788.278	2423.38
787.234	2365.57
786.189	2477.74
785.145	2441.47
784.1	2424.36
783.056	2572.37
782.011	2406.91
780.966	2382.63
779.92	2470.78
778.875	2381.94
777.83	2537.01
776.784	2438.62
775.738	2385.67
774.692	2416.4
773.646	2373.03
772.6	2365.51
771.553	2372.33
770.507	2355.27
769.46	2476.73
768.413	2528.9
767.366	2335.13
766.319	2427.9
765.271	2305.81
764.224	2412.87
763.176	2386.27
762.128	2431.25
761.08	2397.5
760.032	2499.71
758.984	2413.49
757.936	2441.75
756.887	2400.86
755.838	2424.35
754.789	2412.08
753.74	2495.13
752.691	2416.14
751.642	2496.79
750.592	2553.59
749.543	2531.78
748.493	2543.32
747.443	2566.76
746.393	2478.3
745.342	2535.06
744.292	2570.39
743.241	2572.4
742.191	2588.67
741.14	2554.99
740.089	2609.32
739.038	2635.1
737.986	2679.9
736.935	2612.93
735.883	2617.31
734.831	2704.87
733.779	2732.99
732.727	2737.34
731.675	2596.77
730.623	2677.15
729.57	2657.76
728.517	2773.74
727.464	2844.56
726.411	2818.03
725.358	2734.54
724.305	2710.4
723.251	2845.27
722.198	2764.18
721.144	2872.91
720.09	2881.97
719.036	2800.91
717.981	2968.87
716.927	2894.93
715.872	2975.11
714.818	2953.34
713.763	3002.68
712.708	3040.15
711.653	3025.49
710.597	2989.51
709.542	3064.87
708.486	3050.21
707.43	3054.5
706.374	3117.97
705.318	3084.38
704.262	3107.59
703.205	3090.57
702.149	3101.95
701.092	3136.98
700.035	3119.97
698.978	3247.22
697.921	3312.96
696.863	3243.91
695.806	3304.89
694.748	3224.05
693.69	3429.18
692.632	3331.8
691.574	3284.06
690.516	3411.14
689.458	3413
688.399	3497.52
687.34	3551.31
686.281	3501.21
685.222	3529.03
684.163	3507.27
683.104	3558.67
682.044	3614.78
680.984	3590.66
679.924	3712.79
678.864	3688.66
677.804	3622.09
676.744	3781.89
675.684	3743.61
674.623	3846.78
673.562	3754.3
672.501	3939.91
671.44	4026.5
670.379	3896.35
669.317	3980.57
668.256	3939.95
667.194	4021.79
666.132	3974.11
665.07	4119.47
664.008	4043.55
662.946	4031.19
661.883	4087.07
660.821	3994.72
659.758	4003.54
658.695	4127.61
657.632	4119.95
656.568	4196.93
655.505	4193.97
654.441	4202.75
653.378	4244.44
652.314	4283.76
651.25	4146.86
650.185	4219.08
649.121	4197.32
648.057	4192.01
646.992	4207.83
645.927	4167.3
644.862	3992.98
643.797	4264.65
642.732	4073.94
641.666	4183.62
640.601	4145.47
639.535	4090.91
638.469	4123.15
637.403	4092.06
636.336	4000.01
635.27	4034.59
634.204	4052.75
633.137	4033.4
632.07	3964.86
631.003	3940.84
629.936	4026.94
628.868	3918.61
627.801	3953.16
626.733	3826.13
625.665	3991.8
624.597	3904.6
623.529	4044.46
622.461	3931.54
621.393	3942.66
620.324	3960.79
619.255	4042.08
618.186	3992.37
617.117	3916.95
616.048	3988.86
614.979	3964.9
613.909	4167.67
612.839	3912.32
611.77	3972.5
610.699	4030.32
609.629	4053.09
608.559	3949.72
607.489	4014.53
606.418	3964.91
605.347	3952.65
604.276	4106.14
603.205	4161.55
602.134	4172.61
601.062	4101.99
599.991	4082.73
598.919	4135.78
597.847	3964.91
596.775	4043.61
595.703	4017.37
594.63	4091.38
593.558	4032.51
592.485	3936.36
591.412	3968.4
590.339	3918.89
589.266	3867.06
588.193	3789.63
587.119	3879.9
586.046	3744.27
584.972	3739.07
583.898	3719.89
582.824	3717.02
581.75	3655.97
580.675	3643.79
579.601	3606.03
578.526	3635.74
577.451	3604.97
576.376	3597.47
575.301	3724.82
574.225	3603.38
573.15	3658.64
572.074	3558.16
570.998	3432.16
569.922	3503.68
568.846	3433.47
567.77	3495.68
566.693	3499.81
565.617	3629.33
564.54	3433.77
563.463	3442.55
562.386	3393.3
561.308	3441.54
560.231	3457.27
559.153	3468.36
558.076	3416.82
556.998	3365.29
555.92	3445.96
554.841	3424.58
553.763	3444.94
552.684	3446.75
551.606	3432.34
550.527	3459.64
549.448	3528.64
548.369	3548.97
547.289	3673.52
546.21	3596.56
545.13	3593.71
544.05	3627.91
542.97	3648.21
541.89	3700.9
540.81	3908.63
539.729	3882.61
538.649	4011.59
537.568	4087.33
536.487	4061.29
535.406	4238.75
534.325	4473.96
533.243	4496.42
532.162	4840.16
531.08	5146.82
529.998	5610.53
528.916	6027.89
527.834	7011.09
526.751	8208.81
525.669	9953.51
524.586	13570.3
523.503	19827.3
522.42	33049
521.337	57460.9
520.254	83148.6
519.17	86583.5
518.087	63228.4
517.003	37437.3
515.919	22293
514.835	14790.6
513.75	10836.6
512.666	8820.13
511.581	7262.97
510.497	6360.79
509.412	5650.13
508.327	5287.57
507.241	4998.84
506.156	4648.01
505.07	4488.42
503.985	4259.8
502.899	4210.82
501.813	4044.46
500.726	3981.72
499.64	3985.74
498.554	3817.18
497.467	3807.42
496.38	3898.87
495.293	3753.4
494.206	3635.57
493.118	3745.39
492.031	3770.13
490.943	3700.61
489.856	3640.32
488.768	3591.52
487.679	3586.4
486.591	3549.11
485.503	3610.6
484.414	3488.36
483.325	3510.8
482.236	3418.45
481.147	3473.04
480.058	3463.34
478.969	3455.95
477.879	3382.02
476.789	3484.75
475.699	3426.89
474.609	3419.51
473.519	3409.83
472.429	3329.08
471.338	3424.87
470.247	3270.79
469.156	3325.31
468.065	3384.4
466.974	3276.22
465.883	3165.78
464.791	3314.18
463.7	3254.15
462.608	3233.06
461.516	3278.37
460.424	3236.69
459.331	3174.41
458.239	3244.88
457.146	3152.88
456.053	3259.94
454.96	3316.64
453.867	3325.3
452.774	3384.26
451.68	3248.86
450.587	3280.39
449.493	3279.9
448.399	3290.84
447.305	3283.5
446.211	3315
445.116	3325.93
444.022	3409.95
442.927	3459.68
441.832	3424.92
440.737	3406.15
439.642	3485.54
438.546	3505.56
437.451	3468.53
436.355	3534.19
435.259	3634.04
434.163	3549.11
433.067	3566.83
431.971	3504.73
430.874	3527.01
429.777	3540.17
428.68	3630.81
427.583	3641.67
426.486	3618.35
425.389	3713.5
424.291	3706.11
423.194	3735.17
422.096	3702.74
420.998	3834.25
419.9	3861
418.801	3735.24
417.703	3962.27
416.604	4009.47
415.505	4029.35
414.406	4015.11
413.307	4266.98
412.208	4229.96
411.109	4261.17
410.009	4401.5
408.909	4475.86
407.809	4607.02
406.709	4508.62
405.609	4737.44
404.508	4748.1
403.408	4992.71
402.307	4953.36
401.206	5157
400.105	4951.9
399.004	5076.02
397.902	5127.47
396.801	5104.02
395.699	5085.11
394.597	5147.88
393.495	5008.74
392.393	4978.52
391.29	4830.37
390.188	4859.13
389.085	4828.94
387.982	4909.83
386.879	4770.85
385.776	4708.96
384.672	4576.84
383.569	4712.09
382.465	4652.5
381.361	4604.25
380.257	4562.81
379.153	4528.17
378.049	4613.52
376.944	4424.97
375.84	4480.89
374.735	4342.2
373.63	4298.57
372.524	4083.04
371.419	4319.92
370.314	4267.26
369.208	4182.97
368.102	4152.96
366.996	4161.39
365.89	4147.21
364.784	4006.49
363.677	4084.97
362.57	4059.52
361.464	3975.34
360.357	3927.33
359.25	3929
358.142	3962.29
357.035	3959.44
355.927	3904.68
354.819	3931.18
353.711	3853.88
352.603	3916.48
351.495	3938.46
350.386	3838.64
349.278	3955.33
348.169	3810.44
347.06	3767.04
345.951	3764.23
344.842	3817.76
343.732	3837.47
342.623	3832.4
341.513	3831.83
340.403	3788.46
339.293	3765.38
338.182	3908.93
337.072	3773.27
335.961	3955.04
334.851	3817.16
333.74	3915.61
332.629	3894.78
331.517	3984.19
330.406	3821.64
329.294	3886.29
328.182	3950.93
327.071	3972.83
325.958	4032.93
324.846	3890.73
323.734	4092.41
322.621	4055.85
321.508	4032.78
320.395	3960.3
319.282	3988.91
318.169	4004.04
317.056	4048.35
315.942	4119.59
314.828	4112.24
313.714	4259.75
312.6	4281.56
311.486	4328.04
310.372	4361.05
309.257	4438.91
308.142	4516.74
307.028	4619.21
305.912	4665.61
304.797	4929.43
303.682	5007.15
302.566	5127.42
301.45	5296.95
300.335	5311.84
299.219	5427.53
